0.005 0 	0 	0 	
0.015 2.35127e-14 	0 	0 	
0.025 7.34771e-14 	0 	0 	
0.035 8.52335e-14 	0 	0 	
0.045 3.82081e-14 	0 	0 	
0.055 -1.17563e-14 	0 	0 	
0.065 -4.11472e-14 	0 	0 	
0.075 -6.46599e-14 	0 	0 	
0.085 -5.29036e-14 	0 	0 	
0.095 8.81727e-15 	0 	0 	
0.105 5.58426e-14 	0 	0 	
0.115 5.87817e-14 	0 	0 	
0.125 3.52691e-14 	0 	0 	
0.135 -2.35125e-14 	0 	0 	
0.145 -9.40506e-14 	-3.26305e-31 	0 	
0.155 -1.20503e-13 	0 	0 	
0.165 -1.05807e-13 	0 	0 	
0.175 -7.93553e-14 	0 	0 	
0.185 -3.52691e-14 	0 	0 	
0.195 2.93908e-14 	0 	0 	
0.205 6.46599e-14 	0 	0 	
0.215 4.70254e-14 	0 	0 	
0.225 3.82081e-14 	0 	0 	
0.235 4.70254e-14 	6.52609e-31 	0 	
0.245 2.35127e-14 	0 	0 	
0.255 -2.9391e-15 	0 	0 	
0.265 -2.50001e-20 	0 	0 	
0.275 2.93908e-15 	0 	0 	
0.285 0 	0 	0 	
0.295 5.87817e-15 	0 	0 	
0.305 1.46954e-14 	0 	0 	
0.315 2.64517e-14 	0 	0 	
0.325 4.11472e-14 	0 	0 	
0.335 3.5269e-14 	0 	0 	
0.345 2.93905e-15 	0 	0 	
0.355 -3.233e-14 	0 	0 	
0.365 -4.70254e-14 	0 	0 	
0.375 -4.40863e-14 	0 	0 	
0.385 -3.82081e-14 	0 	0 	
0.395 -3.23299e-14 	0 	0 	
0.405 -1.17564e-14 	0 	0 	
0.415 2.64517e-14 	0 	0 	
0.425 3.82081e-14 	0 	0 	
0.435 1.46954e-14 	0 	0 	
0.445 0.507027 	0 	0 	
0.455 7.14368 	0 	0 	
0.465 28.1166 	0 	0 	
0.475 61.7643 	0 	0 	
0.485 95.5234 	0 	0 	
0.495 119.366 	0 	0 	
0.505 132.256 	0 	0 	
0.515 135.03 	0 	0 	
0.525 126.315 	0 	0 	
0.535 98.7568 	0 	0 	
0.545 52.8479 	0 	0 	
0.555 14.4836 	0 	0 	
0.565 0.979255 	0 	0 	
0.575 -8.81727e-15 	0 	0 	
0.585 6.61295e-15 	0 	0 	
0.595 6.61295e-15 	0 	0 	
0.605 -1.76345e-14 	0 	0 	
0.615 -5.29036e-14 	0 	0 	
0.625 -6.61295e-14 	0 	0 	
0.635 -3.52691e-14 	0 	0 	
0.645 1.10215e-14 	0 	0 	
0.655 1.32259e-14 	0 	0 	
0.665 -3.5269e-14 	0 	0 	
0.675 -5.29035e-14 	0 	0 	
0.685 -2.2043e-15 	0 	0 	
0.695 5.06992e-14 	0 	0 	
0.705 7.7151e-14 	0 	0 	
0.715 7.27424e-14 	0 	0 	
0.725 3.30647e-14 	0 	0 	
0.735 4.40863e-15 	0 	0 	
0.745 0 	0 	0 	
0.755 -4.40862e-15 	0 	0 	
0.765 -2.20431e-14 	0 	0 	
0.775 -3.5269e-14 	0 	0 	
0.785 -2.64518e-14 	0 	0 	
0.795 -2.42474e-14 	0 	0 	
0.805 -1.98388e-14 	0 	0 	
0.815 9.99989e-21 	-4.89455e-31 	0 	
0.825 8.81727e-15 	0 	0 	
0.835 2.42475e-14 	0 	0 	
0.845 3.30648e-14 	0 	0 	
0.855 6.61295e-15 	0 	0 	
0.865 -1.32259e-14 	0 	0 	
0.875 6.61295e-15 	0 	0 	
0.885 3.30647e-14 	0 	0 	
0.895 2.64518e-14 	0 	0 	
0.905 2.20433e-15 	0 	0 	
0.915 -1.98388e-14 	0 	0 	
0.925 -2.64518e-14 	0 	0 	
0.935 -1.32259e-14 	0 	0 	
0.945 8.81727e-15 	0 	0 	
0.955 2.86561e-14 	0 	0 	
0.965 2.20432e-14 	0 	0 	
0.975 4.40863e-15 	0 	0 	
0.985 0 	0 	0 	
0.995 0 	0 	0 	
