0.005 -5.19337e-14 	0 	0 	
0.015 -5.19338e-14 	0 	0 	
0.025 1.67528e-13 	0 	0 	
0.035 1.60827e-13 	0 	0 	
0.045 5.36091e-14 	0 	0 	
0.055 1.76288e-25 	0 	0 	
0.065 -3.51807e-14 	0 	0 	
0.075 -2.51292e-14 	0 	0 	
0.085 -1.67527e-14 	0 	0 	
0.095 -2.34537e-14 	0 	0 	
0.105 -7.20368e-14 	0 	0 	
0.115 1.76291e-24 	0 	0 	
0.125 8.3765e-15 	0 	0 	
0.135 -1.54126e-13 	0 	0 	
0.145 -4.69079e-14 	0 	0 	
0.155 -8.3767e-15 	0 	0 	
0.165 1.18945e-13 	0 	0 	
0.175 -3.35055e-14 	0 	0 	
0.185 7.03618e-14 	0 	0 	
0.195 -7.53877e-14 	0 	0 	
0.205 -1.08893e-13 	0 	0 	
0.215 -1.15594e-13 	0 	0 	
0.225 -6.70113e-14 	0 	0 	
0.235 6.86863e-14 	0 	0 	
0.245 1.10569e-13 	0 	0 	
0.255 9.21402e-14 	0 	0 	
0.265 -1.89307e-13 	0 	0 	
0.275 -9.21402e-14 	0 	0 	
0.285 -3.18303e-14 	0 	0 	
0.295 2.34543e-14 	0 	0 	
0.305 3.68565e-14 	0 	0 	
0.315 -3.18302e-14 	0 	0 	
0.325 -4.18823e-14 	0 	0 	
0.335 8.3764e-15 	0 	0 	
0.345 -4.35573e-14 	0 	0 	
0.355 -4.35572e-14 	0 	0 	
0.365 -7.0362e-14 	0 	0 	
0.375 -2.5129e-14 	0 	0 	
0.385 2.51294e-14 	0 	0 	
0.395 5.69595e-14 	0 	0 	
0.405 2.51292e-14 	0 	0 	
0.415 7.37124e-14 	0 	0 	
0.425 1.50775e-13 	0 	0 	
0.435 9.04652e-14 	0 	0 	
0.445 0.0161851 	0 	0 	
0.455 1.12816 	0 	0 	
0.465 12.032 	0 	0 	
0.475 45.6526 	0 	0 	
0.485 96.7503 	0 	0 	
0.495 128.836 	0 	0 	
0.505 130.187 	0 	0 	
0.515 130.075 	0 	0 	
0.525 127.633 	0 	0 	
0.535 97.8306 	0 	0 	
0.545 16.4928 	0 	0 	
0.555 0.136283 	0 	0 	
0.565 1.88469e-14 	0 	0 	
0.575 -8.16696e-14 	0 	0 	
0.585 -8.29265e-14 	0 	0 	
0.595 3.76935e-15 	0 	0 	
0.605 5.40279e-14 	0 	0 	
0.615 8.79527e-15 	0 	0 	
0.625 -7.53875e-14 	0 	0 	
0.635 -7.28746e-14 	0 	0 	
0.645 -1.25643e-15 	0 	0 	
0.655 7.41314e-14 	0 	0 	
0.665 4.77456e-14 	0 	0 	
0.675 -6.28231e-14 	0 	0 	
0.685 4.14633e-14 	0 	0 	
0.695 -8.79522e-14 	0 	0 	
0.705 -7.79007e-14 	0 	0 	
0.715 -1.13083e-14 	0 	0 	
0.725 -4.39763e-14 	0 	0 	
0.735 4.27197e-14 	0 	0 	
0.745 -1.50776e-14 	0 	0 	
0.755 6.78489e-14 	0 	0 	
0.765 1.25645e-15 	0 	0 	
0.775 9.42345e-14 	0 	0 	
0.785 3.64375e-14 	0 	0 	
0.795 8.92088e-14 	0 	0 	
0.805 2.51295e-14 	0 	0 	
0.815 -3.64374e-14 	0 	0 	
0.825 4.3976e-14 	0 	0 	
0.835 -1.16851e-13 	0 	0 	
0.845 7.66441e-14 	0 	0 	
0.855 5.65405e-14 	0 	0 	
0.865 1.44493e-13 	0 	0 	
0.875 9.42347e-14 	0 	0 	
0.885 -5.90538e-14 	0 	0 	
0.895 -4.27197e-14 	0 	0 	
0.905 7.91569e-14 	0 	0 	
0.915 5.90538e-14 	0 	0 	
0.925 1.25646e-14 	0 	0 	
0.935 -1.25646e-13 	0 	0 	
0.945 -9.2978e-14 	0 	0 	
0.955 8.79532e-15 	0 	0 	
0.965 4.27197e-14 	0 	0 	
0.975 -1.25646e-14 	0 	0 	
0.985 1.63339e-14 	0 	0 	
0.995 -6.61076e-26 	0 	0 	
