0.005 1.18945e-13 	0 	0 	
0.015 4.85829e-14 	0 	0 	
0.025 5.86346e-14 	0 	0 	
0.035 9.71664e-14 	0 	0 	
0.045 6.5336e-14 	0 	0 	
0.055 9.88412e-14 	0 	0 	
0.065 5.86346e-14 	0 	0 	
0.075 1.08893e-13 	0 	0 	
0.085 -3.35055e-14 	0 	0 	
0.095 -1.32347e-13 	0 	0 	
0.105 -7.53878e-14 	0 	0 	
0.115 2.5129e-14 	0 	0 	
0.125 3.35054e-14 	0 	0 	
0.135 1.27321e-13 	0 	0 	
0.145 5.36091e-14 	0 	0 	
0.155 -1.67529e-14 	0 	0 	
0.165 2.84797e-14 	0 	0 	
0.175 -3.35054e-14 	0 	0 	
0.185 2.848e-14 	0 	0 	
0.195 -1.13919e-13 	0 	0 	
0.205 -7.20373e-14 	0 	0 	
0.215 -3.3506e-14 	0 	0 	
0.225 -7.53875e-14 	0 	0 	
0.235 9.38158e-14 	0 	0 	
0.245 1.08893e-13 	0 	0 	
0.255 3.35056e-14 	0 	0 	
0.265 3.85314e-14 	0 	0 	
0.275 -1.67525e-14 	0 	0 	
0.285 -4.1882e-14 	0 	0 	
0.295 -4.69076e-14 	0 	0 	
0.305 -1.10569e-13 	0 	0 	
0.315 -3.68563e-14 	0 	0 	
0.325 -5.02584e-14 	0 	0 	
0.335 6.7011e-15 	0 	0 	
0.345 -8.37666e-15 	0 	0 	
0.355 -1.23971e-13 	0 	0 	
0.365 9.54912e-14 	0 	0 	
0.375 -8.37637e-14 	0 	0 	
0.385 9.71664e-14 	0 	0 	
0.395 -1.03867e-13 	0 	0 	
0.405 1.85956e-13 	0 	0 	
0.415 7.87385e-14 	0 	0 	
0.425 -8.3764e-15 	0 	0 	
0.435 3.18301e-14 	0 	0 	
0.445 1.67545e-15 	0 	0 	
0.455 5.02617e-15 	0 	0 	
0.465 0.371122 	0 	0 	
0.475 10.9644 	0 	0 	
0.485 56.2804 	0 	0 	
0.495 120.399 	0 	0 	
0.505 130.165 	0 	0 	
0.515 127.081 	0 	0 	
0.525 80.177 	0 	0 	
0.535 3.30457 	0 	0 	
0.545 4.02065e-14 	0 	0 	
0.555 3.2668e-14 	0 	0 	
0.565 -1.74648e-13 	0 	0 	
0.575 -2.51292e-14 	0 	0 	
0.585 -1.48262e-13 	0 	0 	
0.595 -3.14116e-14 	0 	0 	
0.605 7.16184e-14 	0 	0 	
0.615 -2.01035e-14 	0 	0 	
0.625 3.76938e-14 	0 	0 	
0.635 -1.88467e-14 	0 	0 	
0.645 3.2668e-14 	0 	0 	
0.655 7.53877e-14 	0 	0 	
0.665 7.28748e-14 	0 	0 	
0.675 3.76937e-14 	0 	0 	
0.685 -4.77457e-14 	0 	0 	
0.695 6.78489e-14 	0 	0 	
0.705 -1.38211e-14 	0 	0 	
0.715 -3.01551e-14 	0 	0 	
0.725 -1.88469e-14 	0 	0 	
0.735 4.27197e-14 	0 	0 	
0.745 1.50775e-14 	0 	0 	
0.755 4.27197e-14 	0 	0 	
0.765 7.53877e-14 	0 	0 	
0.775 3.76939e-14 	0 	0 	
0.785 -1.38211e-14 	0 	0 	
0.795 5.27715e-14 	0 	0 	
0.805 2.6783e-29 	0 	0 	
0.815 -5.27713e-14 	0 	0 	
0.825 6.91051e-14 	0 	0 	
0.835 9.54909e-14 	0 	0 	
0.845 4.02069e-14 	0 	0 	
0.855 3.89504e-14 	0 	0 	
0.865 -9.29782e-14 	0 	0 	
0.875 -6.28231e-14 	0 	0 	
0.885 6.28234e-14 	0 	0 	
0.895 3.2668e-14 	0 	0 	
0.905 -1.68366e-13 	0 	0 	
0.915 3.64373e-14 	0 	0 	
0.925 6.28235e-15 	0 	0 	
0.935 -1.4198e-13 	0 	0 	
0.945 -3.2668e-14 	0 	0 	
0.955 -7.53877e-14 	0 	0 	
0.965 1.16851e-13 	0 	0 	
0.975 1.25647e-14 	0 	0 	
0.985 -7.79007e-14 	0 	0 	
0.995 -4.27197e-14 	0 	0 	
