0.005 -5.87815e-14 	0 	0 	
0.015 2.93908e-14 	0 	0 	
0.025 4.40865e-14 	0 	0 	
0.035 -1.46953e-14 	0 	0 	
0.045 -2.93908e-14 	0 	0 	
0.055 1.82774e-24 	0 	0 	
0.065 2.93907e-14 	0 	0 	
0.075 2.93909e-14 	0 	0 	
0.085 2.93907e-14 	0 	0 	
0.095 -5.8782e-14 	0 	0 	
0.105 -4.40863e-14 	0 	0 	
0.115 -3.25005e-19 	0 	0 	
0.125 2.93908e-14 	0 	0 	
0.135 -1.75002e-19 	0 	0 	
0.145 -1.46954e-14 	0 	0 	
0.155 -1.46953e-14 	0 	0 	
0.165 5.87815e-14 	0 	0 	
0.175 2.9391e-14 	0 	0 	
0.185 -2.93907e-14 	0 	0 	
0.195 -4.40861e-14 	0 	0 	
0.205 2.93906e-14 	0 	0 	
0.215 5.87819e-14 	0 	0 	
0.225 -4.40862e-14 	0 	0 	
0.235 -1.46955e-14 	0 	0 	
0.245 1.46953e-14 	0 	0 	
0.255 1.75002e-19 	0 	0 	
0.265 0 	0 	0 	
0.275 -4.40863e-14 	0 	0 	
0.285 -5.87815e-14 	0 	0 	
0.295 7.34774e-14 	0 	0 	
0.305 -4.40861e-14 	0 	0 	
0.315 2.93908e-14 	0 	0 	
0.325 4.4086e-14 	0 	0 	
0.335 2.93909e-14 	0 	0 	
0.345 4.40862e-14 	0 	0 	
0.355 -1.17564e-13 	0 	0 	
0.365 1.02868e-13 	0 	0 	
0.375 2.93908e-14 	0 	0 	
0.385 1.46954e-14 	0 	0 	
0.395 1.46955e-14 	0 	0 	
0.405 -3.6448e-24 	0 	0 	
0.415 4.40861e-14 	0 	0 	
0.425 -8.81727e-14 	0 	0 	
0.435 -4.40861e-14 	0 	0 	
0.445 1.46958e-14 	0 	0 	
0.455 -4.40861e-14 	0 	0 	
0.465 1.46954e-14 	0 	0 	
0.475 0.0279937 	0 	0 	
0.485 9.25889 	0 	0 	
0.495 78.7108 	0 	0 	
0.505 125.055 	0 	0 	
0.515 48.7109 	0 	0 	
0.525 0.11192 	0 	0 	
0.535 1.95783e-29 	0 	0 	
0.545 -2.20432e-14 	0 	0 	
0.555 -2.20433e-14 	0 	0 	
0.565 -3.30646e-14 	0 	0 	
0.575 1.10214e-14 	0 	0 	
0.585 2.20432e-14 	0 	0 	
0.595 3.30647e-14 	0 	0 	
0.605 -1.10216e-14 	0 	0 	
0.615 1.10215e-14 	0 	0 	
0.625 -1.10216e-14 	0 	0 	
0.635 -4.40863e-14 	0 	0 	
0.645 -4.40863e-14 	0 	0 	
0.655 -8.81725e-14 	0 	0 	
0.665 3.30647e-14 	0 	0 	
0.675 8.81727e-14 	0 	0 	
0.685 -5.51077e-14 	0 	0 	
0.695 -2.2043e-14 	0 	0 	
0.705 -6.61292e-14 	0 	0 	
0.715 2.20431e-14 	0 	0 	
0.725 -6.61292e-14 	0 	0 	
0.735 -5.51079e-14 	0 	0 	
0.745 5.5108e-14 	0 	0 	
0.755 2.20432e-14 	0 	0 	
0.765 5.00041e-20 	0 	0 	
0.775 -1.10216e-13 	0 	0 	
0.785 6.61294e-14 	0 	0 	
0.795 2.20432e-14 	0 	0 	
0.805 5.51078e-14 	0 	0 	
0.815 -2.20432e-14 	0 	0 	
0.825 -4.40862e-14 	0 	0 	
0.835 1.10216e-14 	0 	0 	
0.845 5.51079e-14 	0 	0 	
0.855 6.61296e-14 	0 	0 	
0.865 4.89456e-30 	0 	0 	
0.875 -2.71648e-24 	0 	0 	
0.885 -2.20431e-14 	0 	0 	
0.895 2.20431e-14 	0 	0 	
0.905 -1.10216e-14 	0 	0 	
0.915 -3.30647e-14 	0 	0 	
0.925 -7.71509e-14 	0 	0 	
0.935 2.20432e-14 	0 	0 	
0.945 -2.20432e-14 	0 	0 	
0.955 4.40862e-14 	0 	0 	
0.965 -7.71509e-14 	0 	0 	
0.975 5.51079e-14 	0 	0 	
0.985 5.51078e-14 	0 	0 	
0.995 -7.71508e-14 	0 	0 	
