0.005 5.87817e-14 	0 	0 	
0.015 2.9391e-14 	0 	0 	
0.025 -2.93907e-14 	0 	0 	
0.035 -4.40863e-14 	0 	0 	
0.045 -7.3477e-14 	0 	0 	
0.055 -7.34771e-14 	0 	0 	
0.065 -8.81725e-14 	0 	0 	
0.075 -8.81728e-14 	0 	0 	
0.085 1.46955e-14 	0 	0 	
0.095 -2.93909e-14 	0 	0 	
0.105 4.40863e-14 	0 	0 	
0.115 4.40862e-14 	0 	0 	
0.125 1.17563e-13 	0 	0 	
0.135 1.32259e-13 	0 	0 	
0.145 2.05736e-13 	0 	0 	
0.155 1.9104e-13 	0 	0 	
0.165 2.93909e-13 	0 	0 	
0.175 1.32259e-13 	0 	0 	
0.185 2.20431e-13 	0 	0 	
0.195 -2.93907e-14 	0 	0 	
0.205 -1.46953e-14 	0 	0 	
0.215 4.40863e-14 	0 	0 	
0.225 -2.05736e-13 	0 	0 	
0.235 -1.32259e-13 	0 	0 	
0.245 -2.05736e-13 	0 	0 	
0.255 -1.76345e-13 	0 	0 	
0.265 -1.6165e-13 	0 	0 	
0.275 -1.91041e-13 	0 	0 	
0.285 -1.76345e-13 	0 	0 	
0.295 2.80683e-12 	0 	0 	
0.305 7.46529e-10 	0 	0 	
0.315 8.78211e-08 	0 	0 	
0.325 5.26619e-06 	0 	0 	
0.335 0.000175615 	0 	0 	
0.345 0.00345142 	0 	0 	
0.355 0.0415964 	0 	0 	
0.365 0.316605 	0 	0 	
0.375 1.56876 	0 	0 	
0.385 5.29991 	0 	0 	
0.395 13.0699 	0 	0 	
0.405 25.4212 	0 	0 	
0.415 41.7546 	0 	0 	
0.425 60.9093 	0 	0 	
0.435 81.5111 	0 	0 	
0.445 101.733 	0 	0 	
0.455 118.499 	0 	0 	
0.465 127.824 	0 	0 	
0.475 130.084 	0 	0 	
0.485 130.2 	0 	0 	
0.495 130.174 	0 	0 	
0.505 130.153 	0 	0 	
0.515 130.136 	0 	0 	
0.525 130.122 	0 	0 	
0.535 130.11 	0 	0 	
0.545 130.098 	0 	0 	
0.555 130.087 	0 	0 	
0.565 130.075 	0 	0 	
0.575 130.062 	0 	0 	
0.585 130.028 	0 	0 	
0.595 129.802 	0 	0 	
0.605 128.184 	0 	0 	
0.615 119.07 	0 	0 	
0.625 82.9689 	0 	0 	
0.635 21.9714 	0 	0 	
0.645 1.76557 	0 	0 	
0.655 0.0857156 	0 	0 	
0.665 0.00291008 	0 	0 	
0.675 6.44143e-05 	0 	0 	
0.685 8.48628e-07 	0 	0 	
0.695 5.96311e-09 	0 	0 	
0.705 1.91775e-11 	0 	0 	
0.715 -4.40863e-14 	0 	0 	
0.725 -7.71511e-14 	0 	0 	
0.735 -9.91942e-14 	0 	0 	
0.745 -1.4328e-13 	0 	0 	
0.755 -1.32259e-13 	0 	0 	
0.765 -9.91942e-14 	0 	0 	
0.775 -1.76345e-13 	0 	0 	
0.785 -1.10216e-13 	0 	0 	
0.795 -7.71511e-14 	0 	0 	
0.805 -6.61295e-14 	0 	0 	
0.815 -1.75003e-19 	0 	0 	
0.825 4.40863e-14 	0 	0 	
0.835 -2.20433e-14 	0 	0 	
0.845 9.91939e-14 	0 	0 	
0.855 2.20431e-14 	0 	0 	
0.865 4.40863e-14 	0 	0 	
0.875 3.30648e-14 	0 	0 	
0.885 9.91941e-14 	0 	0 	
0.895 8.81726e-14 	0 	0 	
0.905 -1.49995e-19 	0 	0 	
0.915 4.40862e-14 	0 	0 	
0.925 -1.10216e-14 	0 	0 	
0.935 1.32259e-13 	0 	0 	
0.945 1.10216e-14 	0 	0 	
0.955 1.32259e-13 	0 	0 	
0.965 -1.49995e-19 	0 	0 	
0.975 5.51078e-14 	0 	0 	
0.985 -1.10218e-14 	0 	0 	
0.995 -5.51076e-14 	0 	0 	
