0.005 -6.47777e-14 	0 	0 	
0.015 -2.38654e-14 	0 	0 	
0.025 -1.0228e-13 	0 	0 	
0.035 1.50011e-13 	0 	0 	
0.045 -6.13683e-14 	0 	0 	
0.055 4.43216e-14 	0 	0 	
0.065 -3.06841e-14 	0 	0 	
0.075 -1.70465e-14 	0 	0 	
0.085 -6.1368e-14 	0 	0 	
0.095 2.38654e-13 	0 	0 	
0.105 3.06841e-14 	0 	0 	
0.115 8.52334e-14 	0 	0 	
0.125 0 	0 	0 	
0.135 0 	0 	0 	
0.145 -1.02282e-14 	0 	0 	
0.155 -2.14789e-13 	0 	0 	
0.165 4.43213e-14 	0 	0 	
0.175 3.40935e-14 	0 	0 	
0.185 4.0912e-14 	-2.36571e-31 	0 	
0.195 9.54613e-14 	0 	0 	
0.205 -3.40934e-15 	0 	0 	
0.215 0 	0 	0 	
0.225 1.70465e-14 	0 	0 	
0.235 4.09122e-14 	0 	0 	
0.245 -1.70467e-14 	0 	0 	
0.255 9.54618e-14 	-2.36571e-31 	0 	
0.265 1.32965e-13 	-1.18285e-31 	0 	
0.275 -5.11403e-14 	0 	0 	
0.285 -9.54615e-14 	0 	0 	
0.295 -6.47772e-14 	0 	0 	
0.305 -2.72747e-14 	0 	0 	
0.315 -1.43192e-13 	0 	0 	
0.325 6.81868e-14 	0 	0 	
0.335 -7.15963e-14 	0 	0 	
0.345 -1.0228e-14 	0 	0 	
0.355 0 	-1.18285e-31 	0 	
0.365 0 	0 	0 	
0.375 0 	0 	0 	
0.385 1.0228e-14 	0 	0 	
0.395 -6.8187e-15 	0 	0 	
0.405 1.0228e-14 	0 	0 	
0.415 -2.04561e-14 	0 	0 	
0.425 3.40935e-14 	0 	0 	
0.435 7.1596e-14 	0 	0 	
0.445 1.12508e-13 	0 	0 	
0.455 0 	0 	0 	
0.465 2.72748e-14 	0 	0 	
0.475 3.40935e-14 	0 	0 	
0.485 1.02281e-14 	0 	0 	
0.495 21.9193 	0 	0 	
0.505 72.3722 	0 	0 	
0.515 -4.34692e-14 	0 	0 	
0.525 5.114e-14 	0 	0 	
0.535 2.81272e-14 	0 	0 	
0.545 -9.46094e-14 	0 	0 	
0.555 -7.15963e-14 	0 	0 	
0.565 3.8355e-14 	0 	0 	
0.575 -7.671e-14 	0 	0 	
0.585 8.43814e-14 	0 	0 	
0.595 9.2052e-14 	0 	0 	
0.605 2.3013e-14 	0 	0 	
0.615 5.62539e-14 	0 	0 	
0.625 -1.2785e-14 	0 	0 	
0.635 3.5798e-14 	0 	0 	
0.645 4.8583e-14 	0 	0 	
0.655 -2.55701e-14 	0 	0 	
0.665 -1.15065e-13 	0 	0 	
0.675 -1.0228e-13 	0 	0 	
0.685 2.0456e-14 	0 	0 	
0.695 -2.557e-14 	0 	0 	
0.705 1.17622e-13 	0 	0 	
0.715 1.50009e-19 	0 	0 	
0.725 2.55698e-14 	0 	0 	
0.735 6.90394e-14 	0 	0 	
0.745 2.8127e-14 	0 	0 	
0.755 1.68762e-13 	0 	0 	
0.765 -1.02277e-14 	0 	0 	
0.775 7.67103e-14 	0 	0 	
0.785 1.02278e-14 	0 	0 	
0.795 -2.8127e-14 	0 	0 	
0.805 3.32415e-14 	0 	0 	
0.815 3.3241e-14 	0 	0 	
0.825 -1.27847e-14 	0 	0 	
0.835 -7.67101e-15 	0 	0 	
0.845 -2.55701e-15 	0 	0 	
0.855 -9.97234e-14 	0 	0 	
0.865 3.3241e-14 	0 	0 	
0.875 -8.9495e-14 	0 	0 	
0.885 8.94954e-14 	0 	0 	
0.895 -2.81271e-14 	0 	0 	
0.905 -7.1596e-14 	0 	0 	
0.915 -2.81268e-14 	0 	0 	
0.925 2.55698e-14 	0 	0 	
0.935 -2.30126e-14 	0 	0 	
0.945 -5.6254e-14 	0 	0 	
0.955 -2.04564e-14 	0 	0 	
0.965 -1.0228e-14 	0 	0 	
0.975 -1.27848e-14 	0 	0 	
0.985 4.6026e-14 	0 	0 	
0.995 -2.557e-15 	0 	0 	
