0.005 -2.63218e-24 	0 	0 	
0.015 -3.5269e-14 	0 	0 	
0.025 -7.0538e-14 	0 	0 	
0.035 -1.05807e-13 	0 	0 	
0.045 -7.52721e-29 	0 	0 	
0.055 -3.5269e-14 	0 	0 	
0.065 -6.31089e-30 	0 	0 	
0.075 -7.0538e-14 	0 	0 	
0.085 3.5269e-14 	0 	0 	
0.095 -7.05379e-14 	0 	0 	
0.105 3.5269e-14 	0 	0 	
0.115 1.05807e-13 	0 	0 	
0.125 3.94961e-24 	-4.89456e-31 	0 	
0.135 -2.63365e-24 	0 	0 	
0.145 -1.31623e-24 	0 	0 	
0.155 -6.58125e-24 	0 	0 	
0.165 1.05807e-13 	0 	0 	
0.175 -1.05807e-13 	-1.22364e-30 	0 	
0.185 2.63135e-24 	-1.22364e-30 	0 	
0.195 1.41076e-13 	0 	0 	
0.205 -7.0538e-14 	0 	0 	
0.215 3.52691e-14 	0 	0 	
0.225 -1.76345e-13 	0 	0 	
0.235 1.05807e-13 	0 	0 	
0.245 -6.57232e-24 	0 	0 	
0.255 7.05379e-14 	-1.22364e-30 	0 	
0.265 -3.5269e-14 	-1.22364e-30 	0 	
0.275 3.5269e-14 	0 	0 	
0.285 -2.11614e-13 	0 	0 	
0.295 7.05381e-14 	0 	0 	
0.305 -7.05379e-14 	0 	0 	
0.315 7.0538e-14 	0 	0 	
0.325 7.0538e-14 	0 	0 	
0.335 -3.93984e-24 	0 	0 	
0.345 1.05807e-13 	0 	0 	
0.355 -1.41076e-13 	-9.78913e-31 	0 	
0.365 -3.5269e-14 	0 	0 	
0.375 1.31212e-24 	0 	0 	
0.385 1.41076e-13 	0 	0 	
0.395 -3.5269e-14 	0 	0 	
0.405 8.61442e-29 	0 	0 	
0.415 -1.76345e-13 	1.22364e-30 	0 	
0.425 1.05807e-13 	9.78913e-31 	0 	
0.435 -7.0538e-14 	-6.11821e-31 	0 	
0.445 -1.05807e-13 	9.78913e-31 	0 	
0.455 7.0538e-14 	0 	0 	
0.465 1.41076e-13 	0 	0 	
0.475 0.445573 	0 	0 	
0.485 21.5647 	5.16109e-31 	0 	
0.495 100.785 	0 	0 	
0.505 129.942 	0 	0 	
0.515 98.2103 	0 	0 	
0.525 3.32529 	0 	0 	
0.535 5.29037e-14 	0 	0 	
0.545 2.6452e-14 	0 	0 	
0.555 -2.64515e-14 	0 	0 	
0.565 9.81467e-25 	0 	0 	
0.575 -2.64518e-13 	0 	0 	
0.585 1.32259e-13 	0 	0 	
0.595 -2.64518e-14 	0 	0 	
0.605 -1.32259e-13 	0 	0 	
0.615 -1.05807e-13 	0 	0 	
0.625 7.93552e-14 	0 	0 	
0.635 5.29035e-14 	0 	0 	
0.645 1.32259e-13 	0 	0 	
0.655 7.93553e-14 	0 	0 	
0.665 -2.64518e-14 	0 	0 	
0.675 4.9073e-24 	0 	0 	
0.685 2.9444e-24 	0 	0 	
0.695 -2.64515e-14 	0 	0 	
0.705 1.32259e-13 	0 	0 	
0.715 -5.29037e-14 	0 	0 	
0.725 4.89847e-24 	0 	0 	
0.735 -1.5871e-13 	0 	0 	
0.745 -7.93552e-14 	0 	0 	
0.755 1.05807e-13 	0 	0 	
0.765 -7.93555e-14 	0 	0 	
0.775 5.29037e-14 	0 	0 	
0.785 1.05807e-13 	0 	0 	
0.795 2.64518e-14 	0 	0 	
0.805 5.29035e-14 	0 	0 	
0.815 1.95588e-24 	0 	0 	
0.825 -1.32259e-13 	0 	0 	
0.835 7.93555e-14 	0 	0 	
0.845 1.32259e-13 	0 	0 	
0.855 -1.85162e-13 	0 	0 	
0.865 7.93553e-14 	0 	0 	
0.875 5.29035e-14 	0 	0 	
0.885 1.05807e-13 	0 	0 	
0.895 1.32259e-13 	0 	0 	
0.905 -2.64515e-14 	0 	0 	
0.915 -2.6452e-14 	0 	0 	
0.925 -2.6452e-14 	0 	0 	
0.935 -7.93553e-14 	0 	0 	
0.945 2.64515e-14 	0 	0 	
0.955 5.29035e-14 	0 	0 	
0.965 -7.93552e-14 	0 	0 	
0.975 2.64515e-14 	0 	0 	
0.985 2.64515e-14 	0 	0 	
0.995 -7.9355e-14 	0 	0 	
