0.005 0 	0 	0 	
0.015 5.87817e-15 	0 	0 	
0.025 2.93909e-14 	0 	0 	
0.035 4.99645e-14 	0 	0 	
0.045 3.82081e-14 	0 	0 	
0.055 1.76345e-14 	0 	0 	
0.065 -2.49999e-20 	0 	0 	
0.075 -4.99644e-14 	0 	0 	
0.085 -8.52334e-14 	0 	0 	
0.095 -3.23299e-14 	0 	0 	
0.105 3.82081e-14 	0 	0 	
0.115 6.46599e-14 	0 	0 	
0.125 5.87817e-14 	0 	0 	
0.135 8.81723e-15 	0 	0 	
0.145 -5.58427e-14 	-9.78913e-31 	0 	
0.155 -8.81726e-14 	3.26303e-31 	0 	
0.165 -8.52335e-14 	0 	0 	
0.175 -6.46599e-14 	0 	0 	
0.185 -2.93909e-14 	0 	0 	
0.195 2.93908e-14 	0 	0 	
0.205 6.46599e-14 	0 	0 	
0.215 4.11472e-14 	0 	0 	
0.225 1.46954e-14 	0 	0 	
0.235 1.17564e-14 	2.28413e-30 	0 	
0.245 2.9391e-15 	0 	0 	
0.255 2.49999e-20 	0 	0 	
0.265 8.81727e-15 	0 	0 	
0.275 5.87818e-15 	0 	0 	
0.285 0 	0 	0 	
0.295 0 	0 	0 	
0.305 0 	0 	0 	
0.315 2.93907e-15 	0 	0 	
0.325 2.05736e-14 	0 	0 	
0.335 3.82081e-14 	0 	0 	
0.345 8.81725e-15 	0 	0 	
0.355 -3.5269e-14 	0 	0 	
0.365 -2.93909e-14 	0 	0 	
0.375 -1.46954e-14 	0 	0 	
0.385 -2.64517e-14 	0 	0 	
0.395 -2.64518e-14 	0 	0 	
0.405 2.9391e-15 	0 	0 	
0.415 2.93909e-14 	0 	0 	
0.425 2.35127e-14 	0 	0 	
0.435 5.87818e-15 	0 	0 	
0.445 -8.81725e-15 	0 	0 	
0.455 0.251237 	0 	0 	
0.465 6.65735 	0 	0 	
0.475 30.4126 	0 	0 	
0.485 71.2879 	0 	0 	
0.495 111.758 	0 	0 	
0.505 131.576 	0 	0 	
0.515 123.228 	0 	0 	
0.525 89.063 	0 	0 	
0.535 41.8699 	0 	0 	
0.545 9.00917 	0 	0 	
0.555 0.074283 	0 	0 	
0.565 -6.61295e-15 	0 	0 	
0.575 -6.61295e-15 	0 	0 	
0.585 6.61295e-15 	0 	0 	
0.595 6.61295e-15 	0 	0 	
0.605 -1.10216e-14 	0 	0 	
0.615 -3.5269e-14 	0 	0 	
0.625 -4.1882e-14 	0 	0 	
0.635 -8.81725e-15 	0 	0 	
0.645 3.30647e-14 	0 	0 	
0.655 2.42475e-14 	0 	0 	
0.665 -3.5269e-14 	0 	0 	
0.675 -6.61294e-14 	0 	0 	
0.685 -3.08604e-14 	0 	0 	
0.695 3.52689e-14 	0 	0 	
0.705 7.49465e-14 	0 	0 	
0.715 5.06992e-14 	0 	0 	
0.725 1.10216e-14 	0 	0 	
0.735 0 	0 	0 	
0.745 0 	0 	0 	
0.755 0 	0 	0 	
0.765 0 	0 	0 	
0.775 -4.40862e-15 	0 	0 	
0.785 -2.20431e-14 	0 	0 	
0.795 -2.64518e-14 	0 	0 	
0.805 2.2043e-15 	0 	0 	
0.815 2.42475e-14 	-1.7131e-30 	0 	
0.825 1.98389e-14 	0 	0 	
0.835 6.61295e-15 	0 	0 	
0.845 0 	0 	0 	
0.855 -2.20431e-15 	0 	0 	
0.865 -1.10216e-14 	0 	0 	
0.875 -8.81727e-15 	0 	0 	
0.885 8.81726e-15 	0 	0 	
0.895 1.10216e-14 	0 	0 	
0.905 -2.20431e-15 	0 	0 	
0.915 -2.20431e-14 	0 	0 	
0.925 -3.08604e-14 	0 	0 	
0.935 2.2043e-15 	0 	0 	
0.945 3.30647e-14 	0 	0 	
0.955 1.98388e-14 	0 	0 	
0.965 2.20432e-15 	0 	0 	
0.975 0 	0 	0 	
0.985 0 	0 	0 	
0.995 0 	0 	0 	
