0.005 -1.76345e-13 	0 	0 	
0.015 -3.5269e-14 	0 	0 	
0.025 -1.05807e-13 	0 	0 	
0.035 1.76345e-13 	0 	0 	
0.045 -5.26405e-24 	0 	0 	
0.055 1.76345e-13 	0 	0 	
0.065 3.5269e-14 	0 	0 	
0.075 3.5269e-14 	0 	0 	
0.085 -2.82152e-13 	0 	0 	
0.095 7.8975e-24 	0 	0 	
0.105 2.11614e-13 	0 	0 	
0.115 -1.31654e-24 	0 	0 	
0.125 7.05379e-14 	-2.56964e-30 	0 	
0.135 -1.05807e-13 	0 	0 	
0.145 -1.41076e-13 	0 	0 	
0.155 3.52691e-14 	0 	0 	
0.165 7.0538e-14 	0 	0 	
0.175 -1.05807e-13 	-5.13929e-30 	0 	
0.185 -1.05807e-13 	-5.13929e-30 	0 	
0.195 1.05807e-13 	0 	0 	
0.205 -7.05381e-14 	0 	0 	
0.215 -1.41076e-13 	0 	0 	
0.225 -7.0538e-14 	0 	0 	
0.235 1.76345e-13 	0 	0 	
0.245 -1.41076e-13 	0 	0 	
0.255 -3.52695e-14 	-5.87348e-30 	0 	
0.265 1.76345e-13 	-5.62874e-30 	0 	
0.275 -7.0538e-14 	0 	0 	
0.285 3.5269e-14 	0 	0 	
0.295 -1.05807e-13 	0 	0 	
0.305 1.05807e-13 	0 	0 	
0.315 -2.62657e-24 	0 	0 	
0.325 2.62663e-24 	0 	0 	
0.335 3.5269e-14 	0 	0 	
0.345 3.93638e-24 	0 	0 	
0.355 -2.62425e-24 	-5.13929e-30 	0 	
0.365 1.41076e-13 	0 	0 	
0.375 6.50114e-10 	0 	0 	
0.385 4.13808e-06 	0 	0 	
0.395 0.00100229 	0 	0 	
0.405 0.0494509 	0 	0 	
0.415 0.783702 	5.88474e-30 	0 	
0.425 5.12227 	5.45737e-30 	0 	
0.435 17.4993 	-2.31267e-30 	0 	
0.445 39.1808 	3.28939e-30 	0 	
0.455 67.6195 	8.97848e-31 	0 	
0.465 98.1706 	6.60085e-31 	0 	
0.475 122.142 	0 	0 	
0.485 129.893 	-1.22838e-46 	0 	
0.495 130.197 	0 	0 	
0.505 130.157 	-1.84947e-31 	0 	
0.515 130.117 	0 	0 	
0.525 130.06 	0 	0 	
0.535 129.962 	0 	0 	
0.545 129.698 	0 	0 	
0.555 -10632.9 	0 	0 	
0.565 5.06556e+06 	0 	0 	
0.575 5989.05 	0 	0 	
0.585 -9.8183 	0 	0 	
0.595 1.37502 	0 	0 	
0.605 0.0140163 	0 	0 	
0.615 3.67703e-05 	0 	0 	
0.625 3.8936e-09 	0 	0 	
0.635 -7.93553e-14 	0 	0 	
0.645 -1.32259e-13 	0 	0 	
0.655 2.64518e-14 	0 	0 	
0.665 -7.93553e-14 	0 	0 	
0.675 -2.64517e-14 	0 	0 	
0.685 -1.05807e-13 	0 	0 	
0.695 -1.05807e-13 	0 	0 	
0.705 -7.93552e-14 	0 	0 	
0.715 -1.95938e-24 	0 	0 	
0.725 -1.05807e-13 	0 	0 	
0.735 -7.93555e-14 	0 	0 	
0.745 1.05807e-13 	0 	0 	
0.755 -7.93552e-14 	0 	0 	
0.765 4.89847e-24 	0 	0 	
0.775 -1.32259e-13 	0 	0 	
0.785 2.64518e-13 	0 	0 	
0.795 -2.6452e-14 	0 	0 	
0.805 -2.64517e-14 	0 	0 	
0.815 1.05807e-13 	0 	0 	
0.825 2.64517e-14 	0 	0 	
0.835 2.6452e-14 	0 	0 	
0.845 -5.29035e-14 	0 	0 	
0.855 1.95588e-24 	0 	0 	
0.865 -2.93379e-24 	0 	0 	
0.875 1.05807e-13 	0 	0 	
0.885 1.32259e-13 	0 	0 	
0.895 -2.9338e-24 	0 	0 	
0.905 2.93378e-24 	0 	0 	
0.915 2.93369e-24 	0 	0 	
0.925 1.32259e-13 	0 	0 	
0.935 -2.64518e-14 	0 	0 	
0.945 5.29035e-14 	0 	0 	
0.955 2.64517e-14 	0 	0 	
0.965 1.5871e-13 	0 	0 	
0.975 -5.29035e-14 	0 	0 	
0.985 -2.6452e-14 	0 	0 	
0.995 7.93553e-14 	0 	0 	
