0.005 -4.22494e-14 	0 	0 	
0.015 4.22494e-15 	0 	0 	
0.025 1.68997e-14 	0 	0 	
0.035 -7.18239e-14 	0 	0 	
0.045 8.02738e-14 	0 	0 	
0.055 1.26748e-13 	0 	0 	
0.065 8.44987e-15 	-1.87625e-30 	0 	
0.075 1.26748e-14 	0 	0 	
0.085 4.64743e-14 	0 	0 	
0.095 -4.22494e-14 	0 	0 	
0.105 4.22494e-14 	0 	0 	
0.115 3.80244e-14 	0 	0 	
0.125 -1.68998e-14 	0 	0 	
0.135 -2.95746e-14 	0 	0 	
0.145 4.22494e-14 	0 	0 	
0.155 8.87237e-14 	0 	0 	
0.165 -2.53496e-14 	0 	0 	
0.175 1.64773e-13 	0 	0 	
0.185 -2.95746e-14 	0 	0 	
0.195 -3.80244e-14 	0 	0 	
0.205 1.22523e-13 	0 	0 	
0.215 8.44987e-15 	0 	0 	
0.225 8.44987e-15 	0 	0 	
0.235 1.26748e-14 	0 	0 	
0.245 8.44987e-14 	0 	0 	
0.255 -1.26748e-14 	0 	0 	
0.265 -1.26748e-14 	0 	0 	
0.275 2.11247e-14 	0 	0 	
0.285 7.18239e-14 	0 	0 	
0.295 1.26748e-14 	0 	0 	
0.305 3.37995e-14 	0 	0 	
0.315 -4.64743e-14 	0 	0 	
0.325 1.81672e-13 	0 	0 	
0.335 -4.22494e-14 	0 	0 	
0.345 4.22494e-15 	0 	0 	
0.355 1.68998e-14 	0 	0 	
0.365 9.71736e-14 	0 	0 	
0.375 2.11247e-14 	0 	0 	
0.385 3.80244e-14 	0 	0 	
0.395 2.53496e-14 	0 	0 	
0.405 -3.37995e-14 	0 	0 	
0.415 2.53496e-14 	0 	0 	
0.425 2.95746e-14 	0 	0 	
0.435 -1.05623e-13 	0 	0 	
0.445 8.32917e-05 	0 	0 	
0.455 0.152297 	0 	0 	
0.465 4.74008 	0 	0 	
0.475 29.544 	0 	0 	
0.485 80.56 	0 	0 	
0.495 125.924 	0 	0 	
0.505 130.193 	0 	0 	
0.515 129.984 	0 	0 	
0.525 125.199 	0 	0 	
0.535 73.2779 	0 	0 	
0.545 3.71734 	0 	0 	
0.555 0.00391584 	0 	0 	
0.565 3.16869e-14 	0 	0 	
0.575 4.75305e-14 	0 	0 	
0.585 -4.43617e-14 	0 	0 	
0.595 -2.21813e-14 	0 	0 	
0.605 -2.53495e-14 	0 	0 	
0.615 -1.10904e-13 	0 	0 	
0.625 -6.33738e-15 	0 	0 	
0.635 -5.70367e-14 	0 	0 	
0.645 -6.97116e-14 	0 	0 	
0.655 2.53496e-14 	0 	0 	
0.665 -6.33739e-14 	0 	0 	
0.675 7.28803e-14 	0 	0 	
0.685 -1.26748e-14 	0 	0 	
0.695 -1.90122e-14 	0 	0 	
0.705 -1.58434e-14 	0 	0 	
0.715 -1.58435e-13 	0 	0 	
0.725 -1.9012e-14 	1.05539e-30 	0 	
0.735 1.90121e-14 	0 	0 	
0.745 -1.65273e-25 	0 	0 	
0.755 6.97112e-14 	0 	0 	
0.765 1.2041e-13 	-4.92517e-30 	0 	
0.775 -3.1689e-15 	0 	0 	
0.785 -9.50606e-15 	0 	0 	
0.795 -2.85181e-14 	0 	0 	
0.805 -1.58439e-14 	0 	0 	
0.815 -5.06994e-14 	2.46259e-30 	0 	
0.825 -4.43618e-14 	8.79492e-31 	0 	
0.835 -4.75307e-14 	0 	0 	
0.845 -6.33738e-15 	0 	0 	
0.855 8.23863e-14 	0 	0 	
0.865 -3.16866e-15 	0 	0 	
0.875 2.85182e-14 	0 	0 	
0.885 4.75304e-14 	0 	0 	
0.895 -3.1685e-15 	0 	0 	
0.905 -2.53497e-14 	0 	0 	
0.915 1.1018e-25 	0 	0 	
0.925 7.92177e-14 	0 	0 	
0.935 5.70369e-14 	0 	0 	
0.945 3.16872e-14 	0 	0 	
0.955 -1.23579e-13 	0 	0 	
0.965 -1.58435e-14 	0 	0 	
0.975 -6.97115e-14 	0 	0 	
0.985 -9.50625e-15 	0 	0 	
0.995 -3.16874e-14 	0 	0 	
