0.005 0.001 2520.93
0.015 36.1224 8.52421e+06
0.025 3762.38 3.76252e+06
0.035 0.001 2876.99
0.045 0.001 2543.62
0.055 4466.73 1e+07
0.065 0.001 2876.99
0.075 0.001 2876.99
0.085 0.001 17.7818
0.095 0.001 1675
0.105 375.701 3.76377e+06
0.115 0.00100023 2548.69
0.125 0.001 2522.94
0.135 3762.38 3.76417e+06
0.145 5458.61 8.76238e+06
0.155 0.001 2520.93
0.165 0.001 2876.99
0.175 0.001 2876.99
0.185 3963.12 1e+07
0.195 3762.38 3.76244e+06
0.205 8762.37 1e+07
0.215 0.001 2876.99
0.225 3762.38 3.76315e+06
0.235 8762.37 8.76273e+06
0.245 8762.38 1e+07
0.255 3762.38 3.76417e+06
0.265 10000 1e+07
0.275 0.001 2876.99
0.285 272.649 3.7625e+06
0.295 63.1395 3.76245e+06
0.305 363.346 3.76417e+06
0.315 8762.37 8.76273e+06
0.325 8762.38 8.76239e+06
0.335 10000 1e+07
0.345 8762.38 8.76273e+06
0.355 0.00100023 2876.99
0.365 3762.38 3.76417e+06
0.375 452.124 8.76273e+06
0.385 0.001 2520.93
0.395 0.001 2876.99
0.405 8762.37 8.76273e+06
0.415 0.001 2876.99
0.425 0.001 2876.99
0.435 0.001 2876.99
0.445 8762.37 8.76273e+06
0.455 0.001 2876.99
0.465 0.001 2876.99
0.475 0.001 2876.99
0.485 0.001 2876.99
0.495 10000 8.76273e+06
0.505 3762.38 3.76417e+06
0.515 0.001 2876.99
0.525 8762.37 8.76273e+06
0.535 0.001 2876.99
0.545 0.001 2876.99
0.555 0.001 2876.99
0.565 0.001 2876.99
0.575 0.001 2876.99
0.585 0.001 2876.99
0.595 802.536 3.76417e+06
0.605 0.00100023 2520.93
0.615 810.886 8.88516e+06
0.625 51.6938 1e+07
0.635 0.001 1618.3
0.645 4769.81 8.76261e+06
0.655 0.001 1210.44
0.665 3762.38 3.76417e+06
0.675 8762.37 8.76273e+06
0.685 0.001 1996.81
0.695 0.001 2876.99
0.705 2.25122 3.76417e+06
0.715 88.2915 3.76376e+06
0.725 2174.21 3.76388e+06
0.735 64.0495 3.76282e+06
0.745 4736.24 8.76273e+06
0.755 3762.38 3.7638e+06
0.765 0.00100025 2876.99
0.775 3762.38 3.76417e+06
0.785 3762.38 8.76245e+06
0.795 1461.41 3.76417e+06
0.805 3762.38 3.76417e+06
0.815 0.00100023 1541.71
0.825 0.00100023 2876.99
0.835 0.001 2876.99
0.845 0.001 2876.99
0.855 8762.37 8.76273e+06
0.865 155.638 1e+07
0.875 3762.38 3.76417e+06
0.885 0.00100023 3.76373e+06
0.895 8762.37 8.76273e+06
0.905 3762.38 3.76417e+06
0.915 0.001 2800.53
0.925 10000 1e+07
0.935 10000 1e+07
0.945 0.001 2876.99
0.955 8762.37 8.76242e+06
0.965 3819.39 1e+07
0.975 8762.37 8.76273e+06
0.985 0.001 2876.99
0.995 8762.37 8.76264e+06
