0.005 -3.76882e-29 	0 	0 	
0.015 -1.13155e-13 	0 	0 	
0.025 -1.6165e-13 	0 	0 	
0.035 -1.61646e-14 	0 	0 	
0.045 4.04125e-14 	0 	0 	
0.055 -2.93835e-25 	0 	0 	
0.065 -8.08251e-15 	0 	0 	
0.075 8.08249e-14 	0 	0 	
0.085 6.466e-14 	0 	0 	
0.095 -2.42475e-14 	0 	0 	
0.105 -8.08249e-15 	0 	0 	
0.115 8.08249e-14 	0 	0 	
0.125 8.08251e-15 	0 	0 	
0.135 5.65776e-14 	0 	0 	
0.145 7.27425e-14 	0 	0 	
0.155 2.42475e-14 	0 	0 	
0.165 -1.61646e-14 	0 	0 	
0.175 -4.04125e-14 	0 	0 	
0.185 1.61649e-14 	0 	0 	
0.195 3.23301e-14 	0 	0 	
0.205 -5.65775e-14 	0 	0 	
0.215 1.61652e-14 	0 	0 	
0.225 4.04124e-14 	0 	0 	
0.235 8.08243e-15 	0 	0 	
0.245 -4.04125e-14 	0 	0 	
0.255 -8.08246e-15 	0 	0 	
0.265 -1.29319e-13 	0 	0 	
0.275 -7.27425e-14 	0 	0 	
0.285 -1.13155e-13 	0 	0 	
0.295 -6.46599e-14 	0 	0 	
0.305 7.27421e-14 	0 	0 	
0.315 2.44649e-10 	6.73002e-30 	0 	
0.325 6.54062e-08 	0 	0 	
0.335 6.76598e-06 	-6.50568e-30 	0 	
0.345 0.000308342 	0 	0 	
0.355 0.00724329 	-3.47726e-30 	0 	
0.365 0.0924812 	1.30145e-29 	0 	
0.375 0.684795 	0 	0 	
0.385 3.10041 	0 	0 	
0.395 9.32468 	0 	0 	
0.405 20.5676 	1.90667e-30 	0 	
0.415 36.5069 	0 	0 	
0.425 55.9006 	-1.59405e-30 	0 	
0.435 77.2317 	0 	0 	
0.445 98.6187 	-1.82603e-30 	0 	
0.455 116.91 	-2.59732e-30 	0 	
0.465 127.496 	-2.3455e-30 	0 	
0.475 130.078 	0 	0 	
0.485 130.197 	0 	0 	
0.495 130.169 	-8.46354e-31 	0 	
0.505 130.148 	-6.77393e-31 	0 	
0.515 130.132 	0 	0 	
0.525 130.119 	0 	0 	
0.535 130.106 	0 	0 	
0.545 130.096 	0 	0 	
0.555 130.084 	0 	0 	
0.565 130.073 	0 	0 	
0.575 130.058 	0 	0 	
0.585 130.014 	0 	0 	
0.595 129.65 	0 	0 	
0.605 126.856 	0 	0 	
0.615 110.751 	0 	0 	
0.625 54.4978 	0 	0 	
0.635 5.89927 	0 	0 	
0.645 0.23776 	0 	0 	
0.655 0.00599517 	0 	0 	
0.665 9.03427e-05 	0 	0 	
0.675 6.52737e-07 	0 	0 	
0.685 1.94551e-09 	0 	0 	
0.695 1.34573e-12 	0 	0 	
0.705 6.06183e-14 	0 	0 	
0.715 -1.81856e-14 	0 	0 	
0.725 -3.63712e-14 	0 	0 	
0.735 4.84951e-14 	0 	0 	
0.745 3.03094e-14 	0 	0 	
0.755 4.84949e-14 	0 	0 	
0.765 6.06186e-14 	0 	0 	
0.775 3.63712e-14 	0 	0 	
0.785 4.40721e-25 	0 	0 	
0.795 1.09114e-13 	0 	0 	
0.805 -6.06186e-15 	0 	0 	
0.815 -6.06186e-15 	0 	0 	
0.825 -1.81856e-14 	0 	0 	
0.835 1.32988e-21 	0 	0 	
0.845 6.06197e-15 	0 	0 	
0.855 6.06187e-14 	0 	0 	
0.865 2.42475e-14 	0 	0 	
0.875 -4.84951e-14 	0 	0 	
0.885 -5.45569e-14 	0 	0 	
0.895 -3.03093e-14 	0 	0 	
0.905 -1.21237e-14 	0 	0 	
0.915 -9.09281e-14 	0 	0 	
0.925 -2.42476e-14 	0 	0 	
0.935 -2.42476e-14 	0 	0 	
0.945 -1.32217e-24 	0 	0 	
0.955 5.4557e-14 	0 	0 	
0.965 4.2433e-14 	0 	0 	
0.975 6.06191e-15 	0 	0 	
0.985 -3.63714e-14 	0 	0 	
0.995 -2.42475e-14 	0 	0 	
