0.005 -5.91491e-14 	0 	0 	
0.015 4.22494e-14 	0 	0 	
0.025 -4.64743e-14 	0 	0 	
0.035 9.29486e-14 	0 	0 	
0.045 2.35093e-25 	0 	0 	
0.055 1.68998e-14 	0 	0 	
0.065 -1.68998e-14 	-7.505e-30 	0 	
0.075 -4.64743e-14 	0 	0 	
0.085 -4.64743e-14 	0 	0 	
0.095 -6.7599e-14 	0 	0 	
0.105 1.26748e-14 	0 	0 	
0.115 -8.87237e-14 	0 	0 	
0.125 9.29486e-14 	0 	0 	
0.135 -2.11247e-14 	0 	0 	
0.145 3.80244e-14 	0 	0 	
0.155 1.52098e-13 	0 	0 	
0.165 3.80244e-14 	0 	0 	
0.175 1.18298e-13 	0 	0 	
0.185 5.91491e-14 	0 	0 	
0.195 1.26748e-13 	0 	0 	
0.205 2.53496e-14 	0 	0 	
0.215 4.22494e-14 	0 	0 	
0.225 7.60489e-14 	0 	0 	
0.235 -1.39423e-13 	0 	0 	
0.245 1.39423e-13 	0 	0 	
0.255 -5.49242e-14 	0 	0 	
0.265 -1.01398e-13 	0 	0 	
0.275 -3.80244e-14 	0 	0 	
0.285 -7.60489e-14 	0 	0 	
0.295 4.22494e-15 	0 	0 	
0.305 1.56576e-11 	0 	0 	
0.315 7.25579e-09 	0 	0 	
0.325 1.10714e-06 	0 	0 	
0.335 7.25071e-05 	0 	0 	
0.345 0.00220585 	0 	0 	
0.355 0.0350228 	0 	0 	
0.365 0.31819 	0 	0 	
0.375 1.73059 	0 	0 	
0.385 6.00393 	0 	0 	
0.395 14.7002 	0 	0 	
0.405 28.0683 	0 	0 	
0.415 45.19 	0 	0 	
0.425 64.7619 	0 	0 	
0.435 85.4026 	0 	0 	
0.445 105.238 	6.49414e-31 	0 	
0.455 120.954 	1.19986e-30 	0 	
0.465 128.713 	0 	0 	
0.475 130.159 	0 	0 	
0.485 130.188 	5.30613e-31 	0 	
0.495 130.163 	0 	0 	
0.505 130.144 	0 	0 	
0.515 130.129 	1.77149e-31 	0 	
0.525 130.117 	0 	0 	
0.535 130.106 	0 	0 	
0.545 130.095 	0 	0 	
0.555 130.085 	-4.79337e-30 	0 	
0.565 130.072 	0 	0 	
0.575 130.058 	0 	0 	
0.585 130.036 	0 	0 	
0.595 129.968 	0 	0 	
0.605 128.642 	0 	0 	
0.615 121.882 	-2.28866e-30 	0 	
0.625 112.439 	0 	0 	
0.635 47.0212 	0 	0 	
0.645 4.03513 	0 	0 	
0.655 0.137396 	0 	0 	
0.665 0.00292406 	0 	0 	
0.675 3.41992e-05 	0 	0 	
0.685 1.96744e-07 	0 	0 	
0.695 4.18475e-10 	0 	0 	
0.705 1.83784e-13 	0 	0 	
0.715 -2.53496e-14 	0 	0 	
0.725 -1.58433e-14 	5.98055e-30 	0 	
0.735 5.3868e-14 	0 	0 	
0.745 1.26748e-14 	0 	0 	
0.755 -4.75307e-14 	0 	0 	
0.765 1.26746e-14 	-1.68862e-29 	0 	
0.775 -5.0699e-14 	0 	0 	
0.785 6.65428e-14 	0 	0 	
0.795 3.16875e-15 	0 	0 	
0.805 3.16868e-15 	0 	0 	
0.815 -4.43618e-14 	9.49851e-30 	0 	
0.825 -8.23864e-14 	4.22156e-30 	0 	
0.835 -1.58435e-14 	0 	0 	
0.845 -7.92175e-14 	0 	0 	
0.855 -1.26746e-14 	0 	0 	
0.865 2.2181e-14 	0 	0 	
0.875 -1.2358e-13 	0 	0 	
0.885 -6.02055e-14 	0 	0 	
0.895 6.97112e-14 	0 	0 	
0.905 8.55547e-14 	0 	0 	
0.915 -6.97115e-14 	0 	0 	
0.925 5.70368e-14 	0 	0 	
0.935 1.14073e-13 	0 	0 	
0.945 6.97112e-14 	0 	0 	
0.955 1.20411e-13 	0 	0 	
0.965 9.50612e-14 	0 	0 	
0.975 5.06994e-14 	0 	0 	
0.985 6.33738e-15 	0 	0 	
0.995 1.26748e-14 	0 	0 	
