0.005 1.41076e-13 	0 	0 	
0.015 1.05807e-13 	0 	0 	
0.025 -1.05807e-13 	0 	0 	
0.035 7.0538e-14 	0 	0 	
0.045 3.76361e-29 	0 	0 	
0.055 -1.05807e-13 	0 	0 	
0.065 2.11614e-13 	0 	0 	
0.075 5.26382e-24 	0 	0 	
0.085 2.63252e-24 	0 	0 	
0.095 1.18463e-23 	0 	0 	
0.105 -7.0538e-14 	0 	0 	
0.115 3.52691e-14 	0 	0 	
0.125 -7.0538e-14 	-5.38402e-30 	0 	
0.135 1.05807e-13 	0 	0 	
0.145 3.5269e-14 	0 	0 	
0.155 7.0538e-14 	0 	0 	
0.165 -1.76345e-13 	0 	0 	
0.175 -2.63134e-24 	-1.12575e-29 	0 	
0.185 -4.58498e-13 	-1.00339e-29 	0 	
0.195 1.76345e-13 	0 	0 	
0.205 -2.63012e-24 	0 	0 	
0.215 -1.05807e-13 	0 	0 	
0.225 7.0538e-14 	0 	0 	
0.235 -3.52689e-14 	0 	0 	
0.245 -1.05807e-13 	0 	0 	
0.255 -7.0538e-14 	-1.1747e-29 	0 	
0.265 -3.5269e-14 	-1.10128e-29 	0 	
0.275 4.26402e-11 	0 	0 	
0.285 1.03081e-08 	0 	0 	
0.295 1.01414e-06 	0 	0 	
0.305 4.82593e-05 	0 	0 	
0.315 0.001234 	0 	0 	
0.325 0.0181616 	0 	0 	
0.335 0.161454 	0 	0 	
0.345 0.903506 	0 	0 	
0.355 3.34937 	-9.87923e-30 	0 	
0.365 8.83171 	0 	0 	
0.375 17.9852 	0 	0 	
0.385 30.4822 	1.33807e-31 	0 	
0.395 45.5042 	0 	0 	
0.405 62.1787 	-2.65585e-30 	0 	
0.415 79.6803 	3.11839e-31 	0 	
0.425 -1843.77 	1.64851e-30 	0 	
0.435 -1.33926e+09 	2.20814e-27 	0 	
0.445 -2.68707e+26 	-5.37745e-30 	0 	
0.455 -1.27524e+43 	3.21467e-44 	0 	
0.465 -2.9867e+51 	-1.42548e-57 	0 	
0.475 -7.68313e+56 	0 	0 	
0.485 -2.39957e+64 	-1.32471e-73 	0 	
0.495 -2.58361e+75 	-1.3293e-67 	0 	
0.505 4.68546e+85 	-4.06375e-52 	0 	
0.515 1.79185e+84 	0 	0 	
0.525 -2.40029e+87 	0 	0 	
0.535 1.23166e+95 	0 	0 	
0.545 -1.13828e+88 	0 	0 	
0.555 -3.71862e+94 	0 	0 	
0.565 -5.23677e+95 	0 	0 	
0.575 2.26676e+94 	0 	0 	
0.585 4.03562e+91 	0 	0 	
0.595 2.2029e+86 	0 	0 	
0.605 -6.19275e+85 	0 	0 	
0.615 2.7977e+82 	0 	0 	
0.625 1.38122e+71 	0 	0 	
0.635 1.9652e+62 	0 	0 	
0.645 1.74784e+52 	0 	0 	
0.655 1.03587e+48 	0 	0 	
0.665 5.27004e+40 	0 	0 	
0.675 -7.26863e+38 	0 	0 	
0.685 -2.18407e+40 	0 	0 	
0.695 2.1288e+37 	0 	0 	
0.705 2.49309e+29 	0 	0 	
0.715 1.39624e-07 	0 	0 	
0.725 4.41375e-10 	0 	0 	
0.735 3.96777e-13 	0 	0 	
0.745 1.95942e-24 	0 	0 	
0.755 -1.32259e-13 	0 	0 	
0.765 -2.64517e-14 	0 	0 	
0.775 -2.64515e-14 	0 	0 	
0.785 5.87815e-24 	0 	0 	
0.795 5.29036e-14 	0 	0 	
0.805 1.05807e-13 	0 	0 	
0.815 1.05807e-13 	0 	0 	
0.825 1.05807e-13 	0 	0 	
0.835 7.93553e-14 	0 	0 	
0.845 5.29035e-14 	0 	0 	
0.855 -2.6452e-14 	0 	0 	
0.865 2.11614e-13 	0 	0 	
0.875 -7.93555e-14 	0 	0 	
0.885 5.29036e-14 	0 	0 	
0.895 1.32259e-13 	0 	0 	
0.905 -2.6452e-14 	0 	0 	
0.915 5.29035e-14 	0 	0 	
0.925 1.5871e-13 	0 	0 	
0.935 -2.64518e-14 	0 	0 	
0.945 -1.05807e-13 	0 	0 	
0.955 -1.5871e-13 	0 	0 	
0.965 2.64515e-14 	0 	0 	
0.975 -1.32259e-13 	0 	0 	
0.985 -2.64515e-14 	0 	0 	
0.995 -1.05807e-13 	0 	0 	
