0.005 -2.35127e-14 	0 	0 	
0.015 -7.05383e-14 	0 	0 	
0.025 -4.70255e-14 	0 	0 	
0.035 2.35127e-14 	0 	0 	
0.045 -4.70254e-14 	0 	0 	
0.055 -2.35127e-14 	0 	0 	
0.065 7.0538e-14 	0 	0 	
0.075 -9.40507e-14 	0 	0 	
0.085 -4.70254e-14 	0 	0 	
0.095 1.64589e-13 	0 	0 	
0.105 4.70256e-14 	0 	0 	
0.115 7.05381e-14 	0 	0 	
0.125 4.70254e-14 	0 	0 	
0.135 -2.3513e-14 	0 	0 	
0.145 4.70254e-14 	0 	0 	
0.155 -7.05381e-14 	0 	0 	
0.165 -9.4051e-14 	0 	0 	
0.175 -2.35127e-14 	0 	0 	
0.185 -2.35126e-14 	0 	0 	
0.195 -2.35127e-14 	0 	0 	
0.205 -7.05383e-14 	5.54716e-30 	0 	
0.215 1.41076e-13 	0 	0 	
0.225 4.70254e-14 	0 	0 	
0.235 -9.40507e-14 	0 	0 	
0.245 9.40506e-14 	0 	0 	
0.255 -4.70254e-14 	0 	0 	
0.265 -9.40507e-14 	0 	0 	
0.275 -1.17564e-13 	0 	0 	
0.285 -9.4051e-14 	0 	0 	
0.295 -2.35126e-14 	0 	0 	
0.305 -2.35127e-14 	0 	0 	
0.315 -2.35127e-14 	0 	0 	
0.325 2.35127e-14 	0 	0 	
0.335 7.0538e-14 	0 	0 	
0.345 1.17564e-13 	0 	0 	
0.355 3.72441e-11 	0 	0 	
0.365 1.36893e-08 	0 	0 	
0.375 1.84394e-06 	0 	0 	
0.385 0.000111995 	0 	0 	
0.395 0.00344736 	0 	0 	
0.405 0.057634 	0 	0 	
0.415 0.546728 	0 	0 	
0.425 3.06674 	0 	0 	
0.435 10.8723 	0 	0 	
0.445 26.8627 	0 	0 	
0.455 51.1728 	0 	0 	
0.465 81.0014 	0 	0 	
0.475 110.093 	0 	0 	
0.485 127.259 	0 	0 	
0.495 130.203 	0 	0 	
0.505 130.198 	-4.94391e-31 	0 	
0.515 130.16 	1.15589e-30 	0 	
0.525 130.124 	-1.49359e-30 	0 	
0.535 130.06 	-9.9759e-31 	0 	
0.545 129.582 	-8.46677e-31 	0 	
0.555 125.777 	0 	0 	
0.565 106.638 	0 	0 	
0.575 54.7567 	2.04061e-31 	0 	
0.585 9.72973 	0 	0 	
0.595 0.726604 	0 	0 	
0.605 0.0320594 	0 	0 	
0.615 0.000829256 	0 	0 	
0.625 1.14489e-05 	0 	0 	
0.635 7.36505e-08 	0 	0 	
0.645 1.77157e-10 	0 	0 	
0.655 1.76345e-13 	0 	0 	
0.665 1.76345e-14 	0 	0 	
0.675 -7.0538e-14 	0 	0 	
0.685 3.5269e-14 	0 	0 	
0.695 5.29035e-14 	0 	0 	
0.705 -5.29035e-14 	0 	0 	
0.715 5.29035e-14 	0 	0 	
0.725 -1.76345e-14 	0 	0 	
0.735 -8.81725e-14 	0 	0 	
0.745 -5.29035e-14 	0 	0 	
0.755 -7.0538e-14 	-2.08019e-30 	0 	
0.765 3.5269e-14 	0 	0 	
0.775 -3.5269e-14 	0 	0 	
0.785 3.5269e-14 	0 	0 	
0.795 -1.76345e-14 	-2.08019e-30 	0 	
0.805 1.76345e-14 	-2.08019e-30 	0 	
0.815 -3.5269e-14 	0 	0 	
0.825 -1.23441e-13 	0 	0 	
0.835 5.29035e-14 	0 	0 	
0.845 1.76346e-14 	0 	0 	
0.855 -1.76345e-14 	0 	0 	
0.865 1.76344e-14 	0 	0 	
0.875 -1.95783e-29 	0 	0 	
0.885 1.30391e-24 	0 	0 	
0.895 3.5269e-14 	0 	0 	
0.905 1.23441e-13 	0 	0 	
0.915 5.29035e-14 	0 	0 	
0.925 3.5269e-14 	0 	0 	
0.935 -5.29035e-14 	0 	0 	
0.945 -7.0538e-14 	0 	0 	
0.955 0 	0 	0 	
0.965 8.67701e-25 	0 	0 	
0.975 -1.73543e-24 	0 	0 	
0.985 -1.76344e-14 	0 	0 	
0.995 -3.91565e-30 	0 	0 	
