0.005 5.86352e-14 	0 	0 	
0.015 -1.13919e-13 	0 	0 	
0.025 4.18818e-14 	0 	0 	
0.035 -6.19854e-14 	0 	0 	
0.045 4.69079e-14 	0 	0 	
0.055 6.86862e-14 	0 	0 	
0.065 2.93722e-25 	0 	0 	
0.075 2.51295e-14 	0 	0 	
0.085 -4.85829e-14 	0 	0 	
0.095 -2.84796e-14 	0 	0 	
0.105 -4.69077e-14 	0 	0 	
0.115 -5.19337e-14 	0 	0 	
0.125 1.50775e-13 	0 	0 	
0.135 -4.02066e-14 	0 	0 	
0.145 -5.52841e-14 	0 	0 	
0.155 -8.3762e-15 	0 	0 	
0.165 5.86346e-14 	0 	0 	
0.175 8.3765e-15 	0 	0 	
0.185 -1.8428e-14 	0 	0 	
0.195 -5.69594e-14 	0 	0 	
0.205 -1.84281e-13 	0 	0 	
0.215 3.68563e-14 	0 	0 	
0.225 -1.42399e-13 	0 	0 	
0.235 3.85312e-14 	0 	0 	
0.245 1.34023e-14 	0 	0 	
0.255 2.01033e-14 	0 	0 	
0.265 1.67527e-15 	0 	0 	
0.275 7.53874e-14 	0 	0 	
0.285 1.45749e-13 	0 	0 	
0.295 1.08893e-13 	0 	0 	
0.305 8.04135e-14 	0 	0 	
0.315 -1.00517e-13 	0 	0 	
0.325 -1.59152e-13 	0 	0 	
0.335 -2.34538e-14 	0 	0 	
0.345 9.64991e-10 	0 	0 	
0.355 6.01452e-07 	0 	0 	
0.365 7.7792e-05 	0 	0 	
0.375 0.00382505 	0 	0 	
0.385 0.078209 	0 	0 	
0.395 0.756581 	0 	0 	
0.405 3.94754 	0 	0 	
0.415 12.5189 	0 	0 	
0.425 27.7647 	0 	0 	
0.435 48.6961 	0 	0 	
0.445 73.1766 	0 	0 	
0.455 98.301 	0 	0 	
0.465 119.13 	6.79221e-31 	0 	
0.475 128.894 	0 	0 	
0.485 130.196 	0 	0 	
0.495 130.183 	0 	0 	
0.505 130.156 	0 	0 	
0.515 130.135 	0 	0 	
0.525 130.117 	0 	0 	
0.535 130.102 	0 	0 	
0.545 130.087 	0 	0 	
0.555 130.07 	0 	0 	
0.565 130.035 	0 	0 	
0.575 129.794 	0 	0 	
0.585 126.669 	0 	0 	
0.595 105.486 	0 	0 	
0.605 45.3835 	0 	0 	
0.615 3.32567 	0 	0 	
0.625 0.0838439 	0 	0 	
0.635 0.00105009 	0 	0 	
0.645 5.77944e-06 	0 	0 	
0.655 6.99597e-09 	0 	0 	
0.665 3.37987e-13 	0 	0 	
0.675 6.28227e-15 	0 	0 	
0.685 -2.01031e-14 	0 	0 	
0.695 -3.14112e-14 	0 	0 	
0.705 -1.75904e-14 	0 	0 	
0.715 -1.8847e-14 	0 	0 	
0.725 4.39763e-14 	0 	0 	
0.735 1.29415e-13 	0 	0 	
0.745 1.33185e-13 	0 	0 	
0.755 4.9002e-14 	0 	0 	
0.765 1.25646e-15 	0 	0 	
0.775 7.53878e-14 	0 	0 	
0.785 -2.01035e-14 	0 	0 	
0.795 -2.13597e-14 	0 	0 	
0.805 -3.89502e-14 	0 	0 	
0.815 -8.79517e-15 	0 	0 	
0.825 5.00035e-20 	0 	0 	
0.835 -7.03618e-14 	0 	0 	
0.845 7.41313e-14 	0 	0 	
0.855 2.51292e-14 	0 	0 	
0.865 2.5129e-14 	0 	0 	
0.875 -7.53879e-14 	0 	0 	
0.885 7.53875e-14 	0 	0 	
0.895 -1.3821e-14 	0 	0 	
0.905 7.16181e-14 	0 	0 	
0.915 1.0303e-13 	0 	0 	
0.925 2.51291e-14 	0 	0 	
0.935 2.6386e-14 	0 	0 	
0.945 -7.53876e-15 	0 	0 	
0.955 -1.38211e-13 	0 	0 	
0.965 -2.88987e-14 	0 	0 	
0.975 -1.25646e-14 	0 	0 	
0.985 -2.51292e-15 	0 	0 	
0.995 -1.10568e-13 	0 	0 	
