0.005 1.50775e-14 	0 	0 	
0.015 -3.35056e-15 	0 	0 	
0.025 2.01033e-13 	0 	0 	
0.035 3.35055e-15 	0 	0 	
0.045 -9.04649e-14 	0 	0 	
0.055 6.70115e-14 	0 	0 	
0.065 -8.37642e-14 	0 	0 	
0.075 7.53876e-14 	0 	0 	
0.085 -1.34025e-14 	0 	0 	
0.095 8.04136e-14 	0 	0 	
0.105 1.84281e-14 	0 	0 	
0.115 -1.50775e-14 	0 	0 	
0.125 -1.67528e-14 	0 	0 	
0.135 -8.54394e-14 	0 	0 	
0.145 -3.18304e-14 	0 	0 	
0.155 -4.18818e-14 	0 	0 	
0.165 -1.00517e-13 	0 	0 	
0.175 7.53877e-14 	0 	0 	
0.185 7.53876e-14 	0 	0 	
0.195 -7.0362e-14 	0 	0 	
0.205 2.34539e-14 	0 	0 	
0.215 -4.02064e-14 	0 	0 	
0.225 -1.67528e-14 	0 	0 	
0.235 -2.51292e-14 	0 	0 	
0.245 1.34022e-14 	0 	0 	
0.255 -1.07218e-13 	0 	0 	
0.265 3.18303e-14 	0 	0 	
0.275 5.02582e-14 	0 	0 	
0.285 -1.30672e-13 	0 	0 	
0.295 4.69077e-14 	0 	0 	
0.305 1.76313e-25 	0 	0 	
0.315 -7.20368e-14 	0 	0 	
0.325 7.53877e-14 	0 	0 	
0.335 2.51296e-14 	0 	0 	
0.345 6.70125e-15 	0 	0 	
0.355 -1.00516e-14 	0 	0 	
0.365 8.81882e-26 	0 	0 	
0.375 1.6753e-14 	0 	0 	
0.385 -3.68563e-14 	0 	0 	
0.395 2.34538e-14 	0 	0 	
0.405 4.18822e-14 	0 	0 	
0.415 1.17267e-14 	0 	0 	
0.425 8.37641e-14 	0 	0 	
0.435 1.30672e-13 	0 	0 	
0.445 -4.69079e-14 	0 	0 	
0.455 -2.01035e-14 	0 	0 	
0.465 -1.60827e-13 	0 	0 	
0.475 0.586963 	0 	0 	
0.485 22.1151 	0 	0 	
0.495 99.8305 	0 	0 	
0.505 129.667 	0 	0 	
0.515 95.3805 	0 	0 	
0.525 3.95504 	0 	0 	
0.535 1.2439e-13 	0 	0 	
0.545 -1.75905e-14 	0 	0 	
0.555 8.29265e-14 	0 	0 	
0.565 -4.64891e-14 	0 	0 	
0.575 -3.76939e-14 	0 	0 	
0.585 -4.27197e-14 	0 	0 	
0.595 -7.79007e-14 	0 	0 	
0.605 -6.40794e-14 	0 	0 	
0.615 1.0303e-13 	0 	0 	
0.625 4.39761e-14 	0 	0 	
0.635 -1.88472e-14 	0 	0 	
0.645 -3.64376e-14 	0 	0 	
0.655 -2.51293e-14 	0 	0 	
0.665 -5.52843e-14 	0 	0 	
0.675 -2.5129e-14 	0 	0 	
0.685 2.76422e-14 	0 	0 	
0.695 -7.03616e-14 	0 	0 	
0.705 2.88987e-14 	0 	0 	
0.715 5.27714e-14 	0 	0 	
0.725 -3.14115e-14 	0 	0 	
0.735 2.63857e-14 	0 	0 	
0.745 4.39761e-14 	0 	0 	
0.755 1.50775e-13 	0 	0 	
0.765 -2.38727e-14 	0 	0 	
0.775 3.14116e-14 	0 	0 	
0.785 5.02585e-14 	0 	0 	
0.795 -5.40279e-14 	0 	0 	
0.805 -7.03615e-14 	0 	0 	
0.815 -4.52325e-14 	0 	0 	
0.825 6.28228e-15 	0 	0 	
0.835 -2.38727e-14 	0 	0 	
0.845 4.90019e-14 	0 	0 	
0.855 4.64891e-14 	0 	0 	
0.865 4.64891e-14 	0 	0 	
0.875 -5.65408e-14 	0 	0 	
0.885 -5.27712e-14 	0 	0 	
0.895 -7.03616e-14 	0 	0 	
0.905 7.53875e-15 	0 	0 	
0.915 -5.90537e-14 	0 	0 	
0.925 3.14116e-14 	0 	0 	
0.935 7.28749e-14 	0 	0 	
0.945 -6.031e-14 	0 	0 	
0.955 5.02584e-14 	0 	0 	
0.965 2.13598e-14 	0 	0 	
0.975 9.42347e-14 	0 	0 	
0.985 -2.01034e-14 	0 	0 	
0.995 -1.2062e-13 	0 	0 	
