0.005 1.59534e-13 	0 	0 	
0.015 3.81494e-14 	0 	0 	
0.025 -2.60109e-14 	0 	0 	
0.035 6.06921e-14 	0 	0 	
0.045 1.04044e-13 	0 	0 	
0.055 -4.68197e-14 	0 	0 	
0.065 2.04619e-13 	0 	0 	
0.075 -1.73407e-14 	0 	0 	
0.085 1.23118e-13 	5.2943e-30 	0 	
0.095 3.29471e-14 	0 	0 	
0.105 -5.20218e-15 	0 	0 	
0.115 1.09246e-13 	-2.8878e-30 	0 	
0.125 8.67033e-15 	2.64715e-30 	0 	
0.135 1.21385e-14 	0 	0 	
0.145 8.15011e-14 	0 	0 	
0.155 3.46812e-15 	0 	0 	
0.165 -1.04044e-13 	0 	0 	
0.175 7.80326e-14 	0 	0 	
0.185 3.4681e-14 	0 	0 	
0.195 -9.19051e-14 	0 	0 	
0.205 -2.94788e-14 	0 	0 	
0.215 -7.45642e-14 	0 	0 	
0.225 8.67027e-15 	0 	0 	
0.235 -3.46813e-14 	0 	0 	
0.245 1.56067e-14 	0 	0 	
0.255 -1.56065e-14 	0 	0 	
0.265 -4.33514e-14 	0 	0 	
0.275 9.53735e-14 	0 	0 	
0.285 -1.04044e-14 	0 	0 	
0.295 9.53735e-14 	0 	0 	
0.305 -3.46812e-15 	0 	0 	
0.315 -5.20218e-15 	0 	0 	
0.325 -8.67031e-14 	0 	0 	
0.335 -8.1501e-14 	0 	0 	
0.345 -3.46787e-15 	0 	0 	
0.355 -1.21384e-13 	0 	0 	
0.365 -9.01711e-14 	0 	0 	
0.375 8.67033e-15 	0 	0 	
0.385 -8.6704e-15 	0 	0 	
0.395 -1.59534e-13 	0 	0 	
0.405 -8.6703e-15 	0 	0 	
0.415 -1.52597e-13 	0 	0 	
0.425 -1.21384e-13 	0 	0 	
0.435 -5.89579e-14 	0 	0 	
0.445 0.0109911 	0 	0 	
0.455 1.015 	0 	0 	
0.465 11.8313 	0 	0 	
0.475 45.6613 	0 	0 	
0.485 97.2328 	0 	0 	
0.495 129.01 	0 	0 	
0.505 130.185 	0 	0 	
0.515 130.086 	0 	0 	
0.525 127.629 	0 	0 	
0.535 96.4938 	0 	0 	
0.545 15.3399 	0 	0 	
0.555 0.0927366 	0 	0 	
0.565 -1.09246e-13 	0 	0 	
0.575 -1.30055e-14 	0 	0 	
0.585 -2.47105e-14 	0 	0 	
0.595 -1.49562e-13 	0 	0 	
0.605 -7.28304e-14 	0 	0 	
0.615 2.99122e-14 	0 	0 	
0.625 -1.30055e-14 	0 	0 	
0.635 -4.29182e-14 	0 	0 	
0.645 -3.77155e-14 	0 	0 	
0.655 -3.25135e-14 	0 	0 	
0.665 6.89291e-14 	0 	0 	
0.675 1.10546e-13 	0 	0 	
0.685 2.47105e-14 	0 	0 	
0.695 5.2022e-14 	0 	0 	
0.705 1.71672e-13 	0 	0 	
0.715 3.77158e-14 	0 	0 	
0.725 7.80326e-14 	0 	0 	
0.735 -2.6011e-14 	0 	0 	
0.745 -3.7716e-14 	0 	0 	
0.755 1.75573e-13 	0 	0 	
0.765 -5.46229e-14 	0 	0 	
0.775 -3.25134e-14 	0 	0 	
0.785 -4.68194e-14 	0 	0 	
0.795 -4.55193e-14 	0 	0 	
0.805 7.54318e-14 	0 	0 	
0.815 -6.6328e-14 	0 	0 	
0.825 -3.90166e-14 	0 	0 	
0.835 -2.8612e-14 	0 	0 	
0.845 3.1213e-14 	0 	0 	
0.855 4.03169e-14 	0 	0 	
0.865 -7.80325e-14 	0 	0 	
0.875 2.6011e-14 	0 	0 	
0.885 7.02293e-14 	0 	0 	
0.895 7.6732e-14 	0 	0 	
0.905 -1.30055e-15 	0 	0 	
0.915 -6.24263e-14 	0 	0 	
0.925 -6.50273e-15 	0 	0 	
0.935 2.60142e-15 	0 	0 	
0.945 7.80325e-14 	0 	0 	
0.955 -7.54317e-14 	0 	0 	
0.965 -7.15301e-14 	0 	0 	
0.975 6.50275e-14 	0 	0 	
0.985 7.80323e-15 	0 	0 	
0.995 -3.90163e-15 	0 	0 	
