0.005 7.0538e-14 	0 	0 	
0.015 4.23228e-13 	0 	0 	
0.025 7.0538e-14 	0 	0 	
0.035 -2.46883e-13 	0 	0 	
0.045 3.5269e-14 	0 	0 	
0.055 2.11614e-13 	0 	0 	
0.065 7.0538e-14 	0 	0 	
0.075 1.41076e-13 	0 	0 	
0.085 -1.41076e-13 	0 	0 	
0.095 3.5269e-14 	0 	0 	
0.105 -5.26507e-24 	0 	0 	
0.115 -1.31671e-24 	0 	0 	
0.125 1.31654e-24 	-3.54856e-30 	0 	
0.135 -7.0538e-14 	0 	0 	
0.145 -2.11614e-13 	0 	0 	
0.155 -7.0538e-14 	0 	0 	
0.165 1.05807e-13 	0 	0 	
0.175 7.05379e-14 	-7.58658e-30 	0 	
0.185 -1.41076e-13 	-7.09712e-30 	0 	
0.195 -7.0538e-14 	0 	0 	
0.205 1.41076e-13 	0 	0 	
0.215 -7.0538e-14 	0 	0 	
0.225 -3.5269e-14 	0 	0 	
0.235 -3.5269e-14 	0 	0 	
0.245 -2.46883e-13 	0 	0 	
0.255 -3.5269e-14 	-8.32074e-30 	0 	
0.265 1.05807e-13 	-7.83129e-30 	0 	
0.275 -1.05807e-13 	0 	0 	
0.285 -1.41076e-13 	0 	0 	
0.295 1.41076e-13 	0 	0 	
0.305 -3.5269e-14 	0 	0 	
0.315 -3.5269e-14 	0 	0 	
0.325 -1.41076e-13 	0 	0 	
0.335 5.4667e-11 	0 	0 	
0.345 8.29807e-08 	0 	0 	
0.355 1.85506e-05 	-7.09712e-30 	0 	
0.365 0.00122978 	0 	0 	
0.375 0.0321922 	0 	0 	
0.385 0.387797 	0 	0 	
0.395 2.40192 	0 	0 	
0.405 8.65804 	-5.01288e-31 	0 	
0.415 20.9934 	6.23614e-30 	0 	
0.425 39.0318 	1.09737e-30 	0 	
0.435 61.0635 	8.47634e-46 	0 	
0.445 84.9725 	6.33393e-31 	0 	
0.455 107.793 	-3.02958e-46 	0 	
0.465 124.173 	-3.6074e-31 	0 	
0.475 129.781 	0 	0 	
0.485 130.197 	-2.76893e-31 	0 	
0.495 130.163 	3.69298e-31 	0 	
0.505 -2108.15 	-1.84739e-31 	0 	
0.515 -8.24353e+07 	0 	0 	
0.525 -2.61718e+26 	0 	0 	
0.535 -2.06202e+40 	0 	0 	
0.545 1.09974e+39 	0 	0 	
0.555 8.31596e+30 	0 	0 	
0.565 -1.26498e+30 	0 	0 	
0.575 2.4101e+27 	0 	0 	
0.585 -1.6922e+34 	0 	0 	
0.595 9.28831e+21 	0 	0 	
0.605 1.35135e+18 	0 	0 	
0.615 2.80021e+12 	0 	0 	
0.625 1.24354e+06 	0 	0 	
0.635 0.028681 	0 	0 	
0.645 0.000260823 	0 	0 	
0.655 8.09317e-07 	0 	0 	
0.665 3.94952e-10 	0 	0 	
0.675 -2.64518e-14 	0 	0 	
0.685 2.64517e-14 	0 	0 	
0.695 -2.64517e-14 	0 	0 	
0.705 1.05807e-13 	0 	0 	
0.715 -2.64517e-14 	0 	0 	
0.725 -7.93555e-14 	0 	0 	
0.735 -1.58711e-13 	0 	0 	
0.745 -8.81728e-24 	0 	0 	
0.755 2.93909e-24 	0 	0 	
0.765 5.29035e-14 	0 	0 	
0.775 2.64515e-14 	0 	0 	
0.785 5.29035e-14 	0 	0 	
0.795 1.05807e-13 	0 	0 	
0.805 1.05807e-13 	0 	0 	
0.815 1.58711e-13 	0 	0 	
0.825 5.29035e-14 	0 	0 	
0.835 5.29035e-14 	0 	0 	
0.845 1.5871e-13 	0 	0 	
0.855 -5.29035e-14 	0 	0 	
0.865 -2.64517e-14 	0 	0 	
0.875 -1.05807e-13 	0 	0 	
0.885 -1.32259e-13 	0 	0 	
0.895 2.6452e-14 	0 	0 	
0.905 7.93555e-14 	0 	0 	
0.915 2.64518e-14 	0 	0 	
0.925 1.05807e-13 	0 	0 	
0.935 1.05807e-13 	0 	0 	
0.945 1.32259e-13 	0 	0 	
0.955 5.29035e-14 	0 	0 	
0.965 -1.85162e-13 	0 	0 	
0.975 -2.64515e-14 	0 	0 	
0.985 2.6452e-14 	0 	0 	
0.995 5.29035e-14 	0 	0 	
