0.005 -3.83302e-14 	0 	0 	
0.015 9.54895e-14 	0 	0 	
0.025 2.35364e-14 	0 	0 	
0.035 3.6313e-14 	0 	0 	
0.045 5.11072e-14 	0 	0 	
0.055 2.35359e-14 	0 	0 	
0.065 -9.81796e-14 	0 	0 	
0.075 3.3623e-15 	0 	0 	
0.085 2.55537e-14 	0 	0 	
0.095 -5.58146e-14 	0 	0 	
0.105 8.47304e-14 	0 	0 	
0.115 -3.36232e-14 	8.39906e-30 	0 	
0.125 -6.72462e-14 	0 	0 	
0.135 -5.98489e-14 	0 	0 	
0.145 -1.00869e-13 	0 	0 	
0.155 -5.58142e-14 	0 	0 	
0.165 -3.83304e-14 	0 	0 	
0.175 -5.71594e-14 	0 	0 	
0.185 6.05217e-15 	0 	0 	
0.195 -3.09333e-14 	0 	0 	
0.205 -1.09612e-13 	0 	0 	
0.215 -1.31803e-13 	0 	0 	
0.225 -2.01739e-14 	0 	0 	
0.235 5.31243e-14 	0 	0 	
0.245 -5.71592e-14 	0 	0 	
0.255 3.83304e-14 	0 	0 	
0.265 1.3113e-13 	0 	0 	
0.275 -2.68986e-14 	0 	0 	
0.285 -3.56404e-14 	0 	0 	
0.295 -5.11073e-14 	0 	0 	
0.305 -8.27126e-14 	0 	0 	
0.315 6.11941e-14 	0 	0 	
0.325 2.39632e-11 	0 	0 	
0.335 2.25649e-08 	0 	0 	
0.345 4.32856e-06 	0 	0 	
0.355 0.000280643 	0 	0 	
0.365 0.00844278 	0 	0 	
0.375 0.123356 	0 	0 	
0.385 0.949077 	0 	0 	
0.395 4.24764 	0 	0 	
0.405 12.3529 	0 	0 	
0.415 26.1613 	0 	0 	
0.425 44.8211 	0 	0 	
0.435 66.6901 	0 	0 	
0.445 89.7639 	0 	0 	
0.455 111.059 	0 	0 	
0.465 125.441 	0 	0 	
0.475 129.89 	0 	0 	
0.485 130.2 	0 	0 	
0.495 130.172 	0 	0 	
0.505 130.149 	0 	0 	
0.515 130.132 	0 	0 	
0.525 130.117 	0 	0 	
0.535 130.104 	0 	0 	
0.545 130.092 	0 	0 	
0.555 130.079 	0 	0 	
0.565 130.065 	0 	0 	
0.575 130.039 	0 	0 	
0.585 129.785 	0 	0 	
0.595 127.518 	0 	0 	
0.605 118.662 	0 	0 	
0.615 65.7714 	0 	0 	
0.625 7.98484 	0 	0 	
0.635 0.269749 	0 	0 	
0.645 0.00513728 	0 	0 	
0.655 5.37142e-05 	0 	0 	
0.665 2.06511e-07 	0 	0 	
0.675 1.69632e-10 	0 	0 	
0.685 1.21548e-13 	0 	0 	
0.695 6.20346e-14 	0 	0 	
0.705 5.54785e-15 	0 	0 	
0.715 7.46432e-14 	0 	0 	
0.725 -1.00867e-14 	0 	0 	
0.735 8.62433e-14 	0 	0 	
0.745 6.50606e-14 	0 	0 	
0.755 -4.69042e-14 	0 	0 	
0.765 -1.07426e-13 	0 	0 	
0.775 -5.79997e-14 	0 	0 	
0.785 -7.56521e-14 	0 	0 	
0.795 -3.73217e-14 	0 	0 	
0.805 2.32e-14 	0 	0 	
0.815 -1.28608e-13 	0 	0 	
0.825 1.10956e-13 	0 	0 	
0.835 5.0435e-14 	0 	0 	
0.845 -4.13564e-14 	0 	0 	
0.855 -2.52172e-14 	0 	0 	
0.865 1.20539e-13 	0 	0 	
0.875 6.30434e-14 	0 	0 	
0.885 8.11997e-14 	0 	0 	
0.895 -3.02607e-15 	0 	0 	
0.905 1.66436e-14 	0 	0 	
0.915 -3.12695e-14 	0 	0 	
0.925 -3.53046e-14 	0 	0 	
0.935 2.32003e-14 	0 	0 	
0.945 -2.01713e-15 	0 	0 	
0.955 -1.07426e-13 	0 	0 	
0.965 -2.37041e-14 	0 	0 	
0.975 7.06087e-14 	0 	0 	
0.985 -9.83478e-14 	0 	0 	
0.995 3.27825e-14 	0 	0 	
