0.005 4.8495e-14 	0 	0 	
0.015 3.233e-14 	0 	0 	
0.025 -8.0825e-15 	0 	0 	
0.035 -8.0825e-15 	0 	0 	
0.045 -4.04121e-14 	0 	0 	
0.055 -9.69895e-14 	0 	0 	
0.065 8.08263e-15 	0 	0 	
0.075 7.27425e-14 	0 	0 	
0.085 1.6165e-14 	0 	0 	
0.095 4.04125e-14 	0 	0 	
0.105 -8.0825e-15 	0 	0 	
0.115 4.8495e-14 	0 	0 	
0.125 8.89075e-14 	0 	0 	
0.135 8.0825e-15 	0 	0 	
0.145 8.08245e-15 	0 	0 	
0.155 -4.04125e-14 	0 	0 	
0.165 -2.42475e-14 	0 	0 	
0.175 -9.69899e-14 	0 	0 	
0.185 1.6165e-14 	0 	0 	
0.195 2.42475e-14 	0 	0 	
0.205 7.27426e-14 	0 	0 	
0.215 8.08256e-15 	0 	0 	
0.225 1.21435e-19 	0 	0 	
0.235 -6.466e-14 	0 	0 	
0.245 -7.27425e-14 	0 	0 	
0.255 -3.233e-14 	0 	0 	
0.265 -3.23299e-14 	0 	0 	
0.275 2.42475e-14 	0 	0 	
0.285 3.47547e-13 	0 	0 	
0.295 2.21945e-10 	0 	0 	
0.305 3.7997e-08 	0 	0 	
0.315 3.03039e-06 	8.07603e-30 	0 	
0.325 0.000120898 	0 	0 	
0.335 0.00271501 	-7.4031e-30 	0 	
0.345 0.0355457 	0 	0 	
0.355 0.285565 	-3.92945e-30 	0 	
0.365 1.45504 	1.48664e-29 	0 	
0.375 4.97314 	0 	0 	
0.385 12.2848 	1.1626e-30 	0 	
0.395 23.8346 	0 	0 	
0.405 39.0196 	3.78273e-30 	0 	
0.415 56.7879 	0 	0 	
0.425 76.0114 	-9.90874e-31 	0 	
0.435 95.3761 	0 	0 	
0.445 112.813 	-1.91305e-30 	0 	
0.455 124.928 	-2.99598e-30 	0 	
0.465 129.588 	-3.03757e-30 	0 	
0.475 130.192 	0 	0 	
0.485 130.182 	0 	0 	
0.495 130.16 	-1.09998e-30 	0 	
0.505 130.142 	-8.46444e-31 	0 	
0.515 130.129 	0 	0 	
0.525 130.118 	0 	0 	
0.535 130.107 	0 	0 	
0.545 130.098 	0 	0 	
0.555 130.09 	0 	0 	
0.565 130.081 	0 	0 	
0.575 130.071 	0 	0 	
0.585 130.061 	0 	0 	
0.595 130.042 	0 	0 	
0.605 129.938 	0 	0 	
0.615 129.119 	0 	0 	
0.625 123.801 	0 	0 	
0.635 97.6923 	0 	0 	
0.645 32.633 	0 	0 	
0.655 2.43662 	0 	0 	
0.665 0.0959502 	0 	0 	
0.675 0.00258313 	0 	0 	
0.685 4.48853e-05 	0 	0 	
0.695 4.22824e-07 	0 	0 	
0.705 1.9752e-09 	0 	0 	
0.715 3.14005e-12 	0 	0 	
0.725 -3.63713e-14 	0 	0 	
0.735 3.03094e-14 	0 	0 	
0.745 4.2433e-14 	0 	0 	
0.755 1.15176e-13 	0 	0 	
0.765 1.09114e-13 	0 	0 	
0.775 9.09276e-14 	0 	0 	
0.785 1.32217e-24 	0 	0 	
0.795 -1.21238e-14 	0 	0 	
0.805 7.27425e-14 	0 	0 	
0.815 7.27424e-14 	0 	0 	
0.825 1.81856e-14 	0 	0 	
0.835 2.42475e-14 	0 	0 	
0.845 -2.42471e-14 	0 	0 	
0.855 -3.03093e-14 	0 	0 	
0.865 2.42475e-14 	0 	0 	
0.875 -7.27425e-14 	0 	0 	
0.885 -2.42474e-14 	0 	0 	
0.895 1.21238e-14 	0 	0 	
0.905 -4.2433e-14 	0 	0 	
0.915 -3.63712e-14 	0 	0 	
0.925 -5.4557e-14 	0 	0 	
0.935 -1.81856e-14 	0 	0 	
0.945 -1.03052e-13 	0 	0 	
0.955 -6.66807e-14 	0 	0 	
0.965 -7.88043e-14 	0 	0 	
0.975 -4.2433e-14 	0 	0 	
0.985 3.63712e-14 	0 	0 	
0.995 -1.81857e-14 	0 	0 	
