0.005 0 	0 	0 	
0.015 0 	0 	0 	
0.025 0 	0 	0 	
0.035 8.81725e-15 	0 	0 	
0.045 2.64517e-14 	0 	0 	
0.055 2.93908e-14 	0 	0 	
0.065 -5.8782e-15 	0 	0 	
0.075 -3.82081e-14 	0 	0 	
0.085 -2.05736e-14 	0 	0 	
0.095 0 	0 	0 	
0.105 5.87817e-15 	0 	0 	
0.115 2.93909e-14 	0 	0 	
0.125 4.11472e-14 	0 	0 	
0.135 4.38947e-25 	0 	0 	
0.145 -4.70254e-14 	-8.15761e-31 	0 	
0.155 -4.99645e-14 	0 	0 	
0.165 -4.11472e-14 	0 	0 	
0.175 -3.82081e-14 	0 	0 	
0.185 -1.46955e-14 	0 	0 	
0.195 2.93908e-14 	0 	0 	
0.205 4.99645e-14 	0 	0 	
0.215 2.93909e-14 	0 	0 	
0.225 2.9391e-15 	0 	0 	
0.235 -5.87815e-15 	1.63152e-30 	0 	
0.245 -5.87815e-15 	0 	0 	
0.255 2.49999e-20 	0 	0 	
0.265 8.81727e-15 	0 	0 	
0.275 5.87818e-15 	0 	0 	
0.285 0 	0 	0 	
0.295 0 	0 	0 	
0.305 0 	0 	0 	
0.315 3.8208e-14 	0 	0 	
0.325 1.0904e-12 	0 	0 	
0.335 2.87854e-11 	0 	0 	
0.345 6.01457e-10 	0 	0 	
0.355 1.01397e-08 	0 	0 	
0.365 1.41522e-07 	0 	0 	
0.375 1.66463e-06 	0 	0 	
0.385 1.66993e-05 	0 	0 	
0.395 0.00014398 	0 	0 	
0.405 0.00107153 	0 	0 	
0.415 0.00689279 	0 	0 	
0.425 0.0382768 	0 	0 	
0.435 0.182846 	0 	0 	
0.445 0.747746 	0 	0 	
0.455 2.60756 	0 	0 	
0.465 7.7532 	0 	0 	
0.475 19.7746 	0 	0 	
0.485 43.4995 	0 	0 	
0.495 78.7622 	0 	0 	
0.505 102.744 	0 	0 	
0.515 91.5118 	0 	0 	
0.525 58.5257 	0 	0 	
0.535 28.6493 	0 	0 	
0.545 10.6794 	0 	0 	
0.555 3.10494 	0 	0 	
0.565 0.738086 	0 	0 	
0.575 0.148794 	0 	0 	
0.585 0.0258703 	0 	0 	
0.595 0.00390186 	0 	0 	
0.605 0.000510896 	0 	0 	
0.615 5.79442e-05 	0 	0 	
0.625 5.66393e-06 	0 	0 	
0.635 4.7323e-07 	0 	0 	
0.645 3.33809e-08 	0 	0 	
0.655 1.95233e-09 	0 	0 	
0.665 9.21757e-11 	0 	0 	
0.675 3.33953e-12 	0 	0 	
0.685 7.7151e-14 	0 	0 	
0.695 3.08604e-14 	0 	0 	
0.705 4.62906e-14 	0 	0 	
0.715 2.64518e-14 	0 	0 	
0.725 4.40863e-15 	0 	0 	
0.735 0 	0 	0 	
0.745 0 	0 	0 	
0.755 0 	0 	0 	
0.765 0 	0 	0 	
0.775 -2.20431e-15 	0 	0 	
0.785 -1.54302e-14 	0 	0 	
0.795 -2.20432e-14 	0 	0 	
0.805 4.99978e-21 	0 	0 	
0.815 1.98388e-14 	-1.22364e-30 	0 	
0.825 1.54302e-14 	0 	0 	
0.835 4.40863e-15 	0 	0 	
0.845 0 	0 	0 	
0.855 0 	0 	0 	
0.865 -8.81725e-15 	0 	0 	
0.875 -1.10216e-14 	0 	0 	
0.885 6.61296e-15 	0 	0 	
0.895 1.10216e-14 	0 	0 	
0.905 5.43285e-26 	0 	0 	
0.915 -1.54302e-14 	0 	0 	
0.925 -2.42475e-14 	0 	0 	
0.935 -2.71409e-25 	0 	0 	
0.945 2.42475e-14 	0 	0 	
0.955 1.54302e-14 	0 	0 	
0.965 2.20432e-15 	0 	0 	
0.975 0 	0 	0 	
0.985 0 	0 	0 	
0.995 0 	0 	0 	
