0.005 2.35127e-14 	0 	0 	
0.015 9.40507e-14 	0 	0 	
0.025 7.05383e-14 	0 	0 	
0.035 1.17564e-13 	0 	0 	
0.045 -2.35127e-14 	0 	0 	
0.055 4.70254e-14 	0 	0 	
0.065 9.40508e-14 	0 	0 	
0.075 1.17563e-13 	0 	0 	
0.085 2.35126e-14 	0 	0 	
0.095 7.05383e-14 	0 	0 	
0.105 4.70253e-14 	0 	0 	
0.115 -7.05381e-14 	0 	0 	
0.125 -2.6104e-30 	0 	0 	
0.135 -4.70253e-14 	0 	0 	
0.145 -4.70254e-14 	0 	0 	
0.155 -2.35127e-14 	0 	0 	
0.165 2.35127e-14 	0 	0 	
0.175 7.05381e-14 	0 	0 	
0.185 2.35127e-14 	0 	0 	
0.195 5.22087e-30 	0 	0 	
0.205 5.84392e-25 	1.0768e-29 	0 	
0.215 -4.70254e-14 	0 	0 	
0.225 -7.05381e-14 	0 	0 	
0.235 -7.0538e-14 	0 	0 	
0.245 -4.70253e-14 	0 	0 	
0.255 2.35127e-13 	0 	0 	
0.265 2.83093e-11 	0 	0 	
0.275 1.51685e-09 	0 	0 	
0.285 5.65229e-08 	0 	0 	
0.295 1.49989e-06 	0 	0 	
0.305 2.88086e-05 	0 	0 	
0.315 0.000405336 	0 	0 	
0.325 0.00421347 	0 	0 	
0.335 0.0325465 	0 	0 	
0.345 0.187614 	0 	0 	
0.355 0.811842 	0 	0 	
0.365 2.6722 	0 	0 	
0.375 6.86734 	0 	0 	
0.385 14.3209 	0 	0 	
0.395 25.3123 	0 	0 	
0.405 39.4697 	0 	0 	
0.415 56.0464 	0 	0 	
0.425 74.1172 	0 	0 	
0.435 92.5185 	0 	0 	
0.445 109.492 	0 	0 	
0.455 122.317 	0 	0 	
0.465 128.669 	0 	0 	
0.475 130.126 	0 	0 	
0.485 130.208 	0 	0 	
0.495 130.184 	0 	0 	
0.505 130.163 	-4.9287e-31 	0 	
0.515 130.146 	8.63403e-31 	0 	
0.525 130.132 	-1.49227e-30 	0 	
0.535 130.119 	-1.04581e-30 	0 	
0.545 130.107 	-1.16843e-30 	0 	
0.555 130.096 	0 	0 	
0.565 130.084 	0 	0 	
0.575 130.072 	2.87326e-30 	0 	
0.585 130.053 	3.04288e-30 	0 	
0.595 129.989 	3.04221e-30 	0 	
0.605 129.626 	3.21287e-30 	0 	
0.615 127.724 	-2.71663e-30 	0 	
0.625 119.616 	0 	0 	
0.635 93.185 	0 	0 	
0.645 42.468 	0 	0 	
0.655 8.27232 	0 	0 	
0.665 0.949671 	0 	0 	
0.675 0.0850491 	0 	0 	
0.685 0.00612547 	0 	0 	
0.695 0.000346864 	0 	0 	
0.705 1.50545e-05 	0 	0 	
0.715 4.88781e-07 	0 	0 	
0.725 1.15803e-08 	0 	0 	
0.735 1.94632e-10 	0 	0 	
0.745 2.20432e-12 	0 	0 	
0.755 -1.76345e-14 	-4.03801e-30 	0 	
0.765 3.5269e-14 	0 	0 	
0.775 -1.05807e-13 	0 	0 	
0.785 -1.76345e-14 	0 	0 	
0.795 -1.76345e-14 	-4.40511e-30 	0 	
0.805 -3.52689e-14 	-4.40511e-30 	0 	
0.815 -1.76346e-14 	0 	0 	
0.825 -8.81725e-14 	0 	0 	
0.835 -8.81725e-14 	0 	0 	
0.845 -3.5269e-14 	0 	0 	
0.855 8.81725e-14 	0 	0 	
0.865 1.23441e-13 	0 	0 	
0.875 1.5871e-13 	0 	0 	
0.885 5.29035e-14 	0 	0 	
0.895 8.69269e-25 	0 	0 	
0.905 1.76345e-14 	0 	0 	
0.915 1.76344e-14 	0 	0 	
0.925 3.5269e-14 	0 	0 	
0.935 -3.52689e-14 	0 	0 	
0.945 -8.6771e-25 	0 	0 	
0.955 5.29035e-14 	0 	0 	
0.965 -1.76345e-14 	0 	0 	
0.975 -3.5269e-14 	0 	0 	
0.985 -3.52689e-14 	0 	0 	
0.995 8.81725e-14 	0 	0 	
