0.005 4.90141e-14 	0 	0 	
0.015 8.22944e-14 	0 	0 	
0.025 9.99288e-14 	0 	0 	
0.035 9.11115e-14 	0 	0 	
0.045 3.52689e-14 	0 	0 	
0.055 -2.35127e-14 	0 	0 	
0.065 -2.93909e-14 	0 	0 	
0.075 -2.05736e-14 	0 	0 	
0.085 -2.64518e-14 	0 	0 	
0.095 -1.17563e-14 	0 	0 	
0.105 1.17563e-14 	0 	0 	
0.115 1.46954e-14 	0 	0 	
0.125 -1.17564e-14 	0 	0 	
0.135 -6.17208e-14 	0 	0 	
0.145 -1.05807e-13 	-2.93674e-30 	0 	
0.155 -1.46954e-13 	0 	0 	
0.165 -1.82223e-13 	0 	0 	
0.175 -1.64589e-13 	0 	0 	
0.185 -7.93554e-14 	0 	0 	
0.195 1.17563e-14 	0 	0 	
0.205 4.40863e-14 	0 	0 	
0.215 3.82081e-14 	0 	0 	
0.225 6.17207e-14 	0 	0 	
0.235 8.52333e-14 	5.87348e-30 	0 	
0.245 5.58425e-14 	0 	0 	
0.255 2.35127e-14 	0 	0 	
0.265 1.46954e-14 	0 	0 	
0.275 5.87818e-15 	0 	0 	
0.285 0 	0 	0 	
0.295 0 	0 	0 	
0.305 0 	0 	0 	
0.315 -2.93907e-15 	0 	0 	
0.325 2.9391e-15 	0 	0 	
0.335 8.81725e-15 	0 	0 	
0.345 -2.9391e-15 	0 	0 	
0.355 -5.87818e-15 	0 	0 	
0.365 0 	0 	0 	
0.375 -8.81725e-15 	0 	0 	
0.385 -2.64517e-14 	0 	0 	
0.395 -4.70253e-14 	0 	0 	
0.405 -4.99645e-14 	0 	0 	
0.415 -5.87818e-15 	0 	0 	
0.425 2.3924 	0 	0 	
0.435 13.2157 	0 	0 	
0.445 35.2065 	0 	0 	
0.455 63.9144 	0 	0 	
0.465 92.7274 	0 	0 	
0.475 115.736 	0 	0 	
0.485 128.211 	0 	0 	
0.495 130.701 	0 	0 	
0.505 129.572 	0 	0 	
0.515 129.086 	0 	0 	
0.525 129.39 	0 	0 	
0.535 130.678 	0 	0 	
0.545 131.32 	0 	0 	
0.555 127.751 	0 	0 	
0.565 111.836 	0 	0 	
0.575 73.9459 	-7.81213e-31 	0 	
0.585 29.2074 	0 	0 	
0.595 4.83565 	0 	0 	
0.605 -4.62906e-14 	0 	0 	
0.615 -6.39251e-14 	0 	0 	
0.625 -6.39251e-14 	0 	0 	
0.635 -6.17208e-14 	0 	0 	
0.645 -3.74734e-14 	0 	0 	
0.655 -2.20433e-15 	0 	0 	
0.665 -1.54302e-14 	0 	0 	
0.675 -4.1882e-14 	0 	0 	
0.685 -1.54302e-14 	0 	0 	
0.695 3.74734e-14 	0 	0 	
0.705 5.29036e-14 	0 	0 	
0.715 3.74734e-14 	0 	0 	
0.725 5.73123e-14 	0 	0 	
0.735 8.81728e-14 	0 	0 	
0.745 6.61295e-14 	0 	0 	
0.755 2.42475e-14 	0 	0 	
0.765 4.40863e-15 	0 	0 	
0.775 -4.40862e-15 	0 	0 	
0.785 -2.20431e-14 	0 	0 	
0.795 -2.64518e-14 	0 	0 	
0.805 2.2043e-15 	0 	0 	
0.815 2.42475e-14 	-4.4051e-30 	0 	
0.825 1.98389e-14 	0 	0 	
0.835 6.61295e-15 	0 	0 	
0.845 0 	0 	0 	
0.855 -2.20431e-15 	0 	0 	
0.865 -2.20432e-14 	0 	0 	
0.875 -4.84949e-14 	0 	0 	
0.885 -4.62906e-14 	0 	0 	
0.895 -2.86561e-14 	0 	0 	
0.905 -1.98388e-14 	0 	0 	
0.915 -1.98388e-14 	0 	0 	
0.925 -2.20432e-14 	0 	0 	
0.935 -1.32259e-14 	0 	0 	
0.945 1.76345e-14 	0 	0 	
0.955 5.29036e-14 	0 	0 	
0.965 5.06992e-14 	0 	0 	
0.975 2.64518e-14 	0 	0 	
0.985 2.86561e-14 	0 	0 	
0.995 3.5302e-14 	0 	0 	
