0.005 8.0531e-12 	0 	0 	
0.015 6.76e-12 	0 	0 	
0.025 -5.19042e-11 	0 	0 	
0.035 -2.98611e-11 	0 	0 	
0.045 -2.0045e-11 	0 	0 	
0.055 -3.03315e-11 	0 	0 	
0.065 9.75775e-12 	0 	0 	
0.075 -2.32186e-11 	0 	0 	
0.085 5.4667e-12 	0 	0 	
0.095 -7.994e-12 	0 	0 	
0.105 -2.90969e-11 	0 	0 	
0.115 3.08015e-11 	0 	0 	
0.125 2.42769e-11 	0 	0 	
0.135 1.34022e-11 	0 	0 	
0.145 -1.36373e-11 	0 	0 	
0.155 2.32775e-11 	0 	0 	
0.165 -3.09194e-11 	0 	0 	
0.175 1.43425e-11 	0 	0 	
0.185 1.28732e-11 	0 	0 	
0.195 -4.19112e-11 	0 	0 	
0.205 7.0538e-12 	0 	0 	
0.215 -1.45779e-11 	0 	0 	
0.225 7.9355e-12 	0 	0 	
0.235 -3.7738e-11 	0 	0 	
0.245 1.822e-12 	0 	0 	
0.255 3.83257e-11 	0 	0 	
0.265 -2.03385e-11 	0 	0 	
0.275 -3.11543e-12 	0 	0 	
0.285 1.02868e-11 	0 	0 	
0.295 7.17135e-12 	0 	0 	
0.305 -1.22852e-11 	0 	0 	
0.315 -1.54008e-11 	0 	0 	
0.325 1.39313e-11 	0 	0 	
0.335 -1.6988e-11 	0 	0 	
0.345 1.5107e-11 	0 	0 	
0.355 3.02726e-11 	0 	0 	
0.365 -1.66352e-11 	0 	0 	
0.375 5.8194e-12 	0 	0 	
0.385 -1.89278e-11 	0 	0 	
0.395 -1.5812e-11 	0 	0 	
0.405 2.01031e-11 	0 	0 	
0.415 -1.43427e-11 	0 	0 	
0.425 -2.0985e-11 	0 	0 	
0.435 8.2295e-13 	0 	0 	
0.445 9.993e-12 	0 	0 	
0.455 2.17495e-12 	0 	0 	
0.465 2.6922e-11 	0 	0 	
0.475 -5.584e-12 	0 	0 	
0.485 104.003 	0 	0 	
0.495 -3.89957e+07 	0 	0 	
0.505 5.97901e+06 	0 	0 	
0.515 2045.88 	0 	0 	
0.525 -2.7598e-11 	0 	0 	
0.535 -1.13302e-11 	0 	0 	
0.545 3.41665e-11 	0 	0 	
0.555 -1.0228e-11 	0 	0 	
0.565 -7.8915e-12 	0 	0 	
0.575 3.5313e-11 	0 	0 	
0.585 1.5386e-11 	0 	0 	
0.595 1.61795e-11 	0 	0 	
0.605 1.8428e-11 	0 	0 	
0.615 -8.3765e-13 	0 	0 	
0.625 -2.89649e-11 	0 	0 	
0.635 2.06324e-11 	0 	0 	
0.645 -2.29688e-11 	0 	0 	
0.655 -6.8466e-11 	0 	0 	
0.665 1.8913e-11 	0 	0 	
0.675 5.50196e-11 	0 	0 	
0.685 -7.14195e-12 	0 	0 	
0.695 1.2785e-12 	0 	0 	
0.705 3.91487e-11 	0 	0 	
0.715 -1.455e-12 	0 	0 	
0.725 3.70765e-11 	0 	0 	
0.735 -5.11845e-11 	0 	0 	
0.745 -1.7987e-11 	0 	0 	
0.755 8.46455e-12 	0 	0 	
0.765 8.20005e-12 	0 	0 	
0.775 5.7753e-12 	0 	0 	
0.785 -2.06325e-11 	0 	0 	
0.795 -3.965e-13 	0 	0 	
0.805 -3.86195e-11 	0 	0 	
0.815 1.85602e-11 	0 	0 	
0.825 3.41669e-11 	0 	0 	
0.835 -1.7635e-12 	0 	0 	
0.845 -2.19109e-11 	0 	0 	
0.855 2.21313e-11 	0 	0 	
0.865 3.5269e-11 	0 	0 	
0.875 1.8869e-11 	0 	0 	
0.885 5.69593e-11 	0 	0 	
0.895 -2.54815e-11 	0 	0 	
0.905 -1.7943e-11 	0 	0 	
0.915 -6.03102e-11 	0 	0 	
0.925 7.58285e-12 	0 	0 	
0.935 -1.72377e-11 	0 	0 	
0.945 -5.4225e-12 	0 	0 	
0.955 1.7635e-13 	0 	0 	
0.965 4.5409e-12 	0 	0 	
0.975 1.52538e-11 	0 	0 	
0.985 1.0228e-11 	0 	0 	
0.995 -2.43797e-11 	0 	0 	
