0.005 5.69595e-14 	0 	0 	
0.015 -5.1934e-14 	0 	0 	
0.025 4.18818e-14 	0 	0 	
0.035 6.7011e-14 	0 	0 	
0.045 1.57476e-13 	0 	0 	
0.055 -5.5284e-14 	0 	0 	
0.065 1.87631e-13 	0 	0 	
0.075 -7.53877e-14 	0 	0 	
0.085 4.35573e-14 	0 	0 	
0.095 3.85313e-14 	0 	0 	
0.105 1.67493e-15 	0 	0 	
0.115 -1.22295e-13 	0 	0 	
0.125 8.37636e-14 	0 	0 	
0.135 9.04652e-14 	0 	0 	
0.145 -4.11363e-25 	0 	0 	
0.155 1.50774e-14 	0 	0 	
0.165 3.51807e-14 	0 	0 	
0.175 2.93794e-25 	0 	0 	
0.185 8.20885e-14 	0 	0 	
0.195 8.04136e-14 	0 	0 	
0.205 1.50776e-14 	0 	0 	
0.215 -6.3661e-14 	0 	0 	
0.225 -1.34022e-13 	0 	0 	
0.235 9.71664e-14 	0 	0 	
0.245 6.70092e-15 	0 	0 	
0.255 6.86868e-14 	0 	0 	
0.265 3.18307e-14 	0 	0 	
0.275 5.86346e-14 	0 	0 	
0.285 -1.50774e-14 	0 	0 	
0.295 5.02582e-15 	0 	0 	
0.305 5.69595e-14 	0 	0 	
0.315 -6.70137e-15 	0 	0 	
0.325 1.67527e-14 	0 	0 	
0.335 -2.84798e-14 	0 	0 	
0.345 6.86865e-14 	0 	0 	
0.355 5.69598e-14 	0 	0 	
0.365 -6.86863e-14 	0 	0 	
0.375 -8.37641e-14 	0 	0 	
0.385 -3.68561e-14 	0 	0 	
0.395 -3.85314e-14 	0 	0 	
0.405 3.06153e-07 	0 	0 	
0.415 0.000516829 	0 	0 	
0.425 0.0502853 	0 	0 	
0.435 1.07074 	0 	0 	
0.445 7.85625 	0 	0 	
0.455 27.0124 	0 	0 	
0.465 58.9368 	5.62994e-31 	0 	
0.475 96.9651 	0 	0 	
0.485 124.919 	0 	0 	
0.495 130.194 	0 	0 	
0.505 130.18 	0 	0 	
0.515 130.138 	0 	0 	
0.525 130.099 	0 	0 	
0.535 129.916 	0 	0 	
0.545 126.736 	0 	0 	
0.555 102.727 	0 	0 	
0.565 26.9869 	0 	0 	
0.575 0.776665 	0 	0 	
0.585 0.00466277 	0 	0 	
0.595 1.79825e-06 	0 	0 	
0.605 7.91569e-14 	0 	0 	
0.615 -4.40729e-25 	0 	0 	
0.625 -4.3976e-14 	0 	0 	
0.635 -1.75904e-14 	0 	0 	
0.645 -6.65925e-14 	0 	0 	
0.655 8.54389e-14 	0 	0 	
0.665 2.88986e-14 	0 	0 	
0.675 -2.51292e-14 	0 	0 	
0.685 -9.54909e-14 	0 	0 	
0.695 -4.14631e-14 	0 	0 	
0.705 -3.26679e-14 	0 	0 	
0.715 5.02588e-15 	0 	0 	
0.725 6.91055e-14 	0 	0 	
0.735 9.17218e-14 	0 	0 	
0.745 -6.2824e-15 	0 	0 	
0.755 2.63856e-14 	0 	0 	
0.765 -6.40794e-14 	0 	0 	
0.775 1.50775e-13 	0 	0 	
0.785 4.90019e-14 	0 	0 	
0.795 1.00517e-14 	0 	0 	
0.805 -1.06799e-13 	0 	0 	
0.815 -6.40795e-14 	0 	0 	
0.825 -8.16699e-14 	0 	0 	
0.835 2.5129e-14 	0 	0 	
0.845 1.75904e-14 	0 	0 	
0.855 1.6334e-14 	0 	0 	
0.865 -4.90018e-14 	0 	0 	
0.875 5.65406e-14 	0 	0 	
0.885 1.63339e-14 	0 	0 	
0.895 -2.76423e-14 	0 	0 	
0.905 -6.2826e-15 	0 	0 	
0.915 -2.13598e-14 	0 	0 	
0.925 -8.79524e-14 	0 	0 	
0.935 -2.26161e-14 	0 	0 	
0.945 -1.25623e-15 	0 	0 	
0.955 -1.08055e-13 	0 	0 	
0.965 2.01032e-14 	0 	0 	
0.975 3.14114e-14 	0 	0 	
0.985 -2.88985e-14 	0 	0 	
0.995 -6.78487e-14 	0 	0 	
