0.005 4.26387e-14 	0 	0 	
0.015 7.93553e-14 	0 	0 	
0.025 9.99288e-14 	0 	0 	
0.035 9.11115e-14 	0 	0 	
0.045 3.52689e-14 	0 	0 	
0.055 -2.35127e-14 	0 	0 	
0.065 -2.64518e-14 	0 	0 	
0.075 -2.05736e-14 	0 	0 	
0.085 -3.233e-14 	0 	0 	
0.095 -4.38752e-25 	0 	0 	
0.105 3.82081e-14 	0 	0 	
0.115 2.35127e-14 	0 	0 	
0.125 -1.17563e-14 	0 	0 	
0.135 -7.05381e-14 	0 	0 	
0.145 -1.38137e-13 	-1.30521e-30 	0 	
0.155 -1.55772e-13 	1.30522e-30 	0 	
0.165 -1.32259e-13 	0 	0 	
0.175 -9.99289e-14 	0 	0 	
0.185 -4.70254e-14 	0 	0 	
0.195 2.64518e-14 	0 	0 	
0.205 6.46599e-14 	0 	0 	
0.215 5.58426e-14 	0 	0 	
0.225 6.75988e-14 	0 	0 	
0.235 8.22942e-14 	3.91565e-30 	0 	
0.245 4.99643e-14 	6.52609e-31 	0 	
0.255 8.81723e-15 	0 	0 	
0.265 -8.81727e-15 	0 	0 	
0.275 -5.87818e-15 	0 	0 	
0.285 0 	0 	0 	
0.295 5.87817e-15 	0 	0 	
0.305 2.35127e-14 	0 	0 	
0.315 3.82081e-14 	0 	0 	
0.325 3.23299e-14 	0 	0 	
0.335 8.81723e-15 	0 	0 	
0.345 -1.46954e-14 	0 	0 	
0.355 -2.93909e-14 	0 	0 	
0.365 -3.5269e-14 	0 	0 	
0.375 -3.233e-14 	0 	0 	
0.385 -3.23299e-14 	0 	0 	
0.395 -4.11472e-14 	0 	0 	
0.405 -3.23299e-14 	0 	0 	
0.415 1.46954e-14 	0 	0 	
0.425 4.40863e-14 	0 	0 	
0.435 1.23405 	0 	0 	
0.445 9.80446 	0 	0 	
0.455 31.7372 	0 	0 	
0.465 63.3356 	0 	0 	
0.475 95.3037 	0 	0 	
0.485 118.081 	0 	0 	
0.495 127.713 	0 	0 	
0.505 129.97 	0 	0 	
0.515 130.596 	0 	0 	
0.525 131.32 	0 	0 	
0.535 130.591 	0 	0 	
0.545 119.773 	0 	0 	
0.555 87.3804 	0 	0 	
0.565 41.0615 	0 	0 	
0.575 8.87567 	-4.88953e-31 	0 	
0.585 0.0855228 	0 	0 	
0.595 2.20433e-15 	0 	0 	
0.605 -3.08604e-14 	0 	0 	
0.615 -6.39251e-14 	0 	0 	
0.625 -6.39251e-14 	0 	0 	
0.635 -4.40863e-14 	0 	0 	
0.645 -1.76345e-14 	0 	0 	
0.655 6.61295e-15 	0 	0 	
0.665 -6.61295e-15 	0 	0 	
0.675 -3.08604e-14 	0 	0 	
0.685 -1.10216e-14 	0 	0 	
0.695 2.42475e-14 	0 	0 	
0.705 3.30647e-14 	0 	0 	
0.715 3.5269e-14 	0 	0 	
0.725 4.62906e-14 	0 	0 	
0.735 5.51079e-14 	0 	0 	
0.745 4.62906e-14 	0 	0 	
0.755 2.20432e-14 	0 	0 	
0.765 4.40863e-15 	0 	0 	
0.775 -4.40862e-15 	0 	0 	
0.785 -2.20431e-14 	0 	0 	
0.795 -2.64518e-14 	0 	0 	
0.805 2.2043e-15 	0 	0 	
0.815 2.42475e-14 	-3.42619e-30 	0 	
0.825 1.98389e-14 	0 	0 	
0.835 6.61295e-15 	0 	0 	
0.845 0 	0 	0 	
0.855 -2.20431e-15 	0 	0 	
0.865 -1.10216e-14 	0 	0 	
0.875 -8.81727e-15 	0 	0 	
0.885 8.81726e-15 	0 	0 	
0.895 -2.20432e-15 	0 	0 	
0.905 -3.30647e-14 	0 	0 	
0.915 -3.74734e-14 	0 	0 	
0.925 -2.20432e-14 	0 	0 	
0.935 -1.62845e-25 	0 	0 	
0.945 1.10216e-14 	0 	0 	
0.955 1.32259e-14 	0 	0 	
0.965 3.08604e-14 	0 	0 	
0.975 3.5269e-14 	0 	0 	
0.985 1.54302e-14 	0 	0 	
0.995 2.20432e-15 	0 	0 	
