0.005 2.60107e-14 	0 	0 	
0.015 -3.46812e-14 	0 	0 	
0.025 -1.30054e-13 	0 	0 	
0.035 1.21384e-14 	0 	0 	
0.045 8.8437e-14 	0 	0 	
0.055 -9.53733e-14 	0 	0 	
0.065 9.36391e-14 	0 	0 	
0.075 3.46812e-14 	0 	0 	
0.085 -1.02309e-13 	1.20325e-29 	0 	
0.095 -8.8437e-14 	0 	0 	
0.105 -3.29469e-14 	0 	0 	
0.115 -6.93625e-14 	-6.25688e-30 	0 	
0.125 1.73406e-14 	6.01623e-30 	0 	
0.135 -3.64153e-14 	0 	0 	
0.145 1.31789e-13 	0 	0 	
0.155 5.02877e-14 	0 	0 	
0.165 -5.72238e-14 	0 	0 	
0.175 -1.38725e-13 	0 	0 	
0.185 1.07512e-13 	0 	0 	
0.195 1.63002e-13 	0 	0 	
0.205 -3.12132e-14 	0 	0 	
0.215 8.6704e-15 	0 	0 	
0.225 1.73408e-14 	0 	0 	
0.235 -1.2832e-13 	0 	0 	
0.245 9.01713e-14 	0 	0 	
0.255 -1.45661e-13 	0 	0 	
0.265 -5.89579e-14 	0 	0 	
0.275 -3.46813e-14 	0 	0 	
0.285 2.9479e-14 	0 	0 	
0.295 -1.30054e-13 	0 	0 	
0.305 -9.71072e-14 	0 	0 	
0.315 -5.20223e-15 	0 	0 	
0.325 -6.06923e-14 	0 	0 	
0.335 -2.42768e-14 	0 	0 	
0.345 -1.33523e-13 	0 	0 	
0.355 3.46807e-15 	0 	0 	
0.365 5.83296e-09 	0 	0 	
0.375 5.76056e-06 	0 	0 	
0.385 0.000804416 	0 	0 	
0.395 0.0321428 	0 	0 	
0.405 0.491463 	0 	0 	
0.415 3.37578 	0 	0 	
0.425 12.3937 	0 	0 	
0.435 29.5657 	0 	0 	
0.445 53.6084 	0 	0 	
0.455 81.4833 	0 	0 	
0.465 108.502 	0 	0 	
0.475 126.108 	0 	0 	
0.485 130.116 	0 	0 	
0.495 130.191 	0 	0 	
0.505 130.159 	0 	0 	
0.515 130.132 	0 	0 	
0.525 130.107 	0 	0 	
0.535 130.077 	0 	0 	
0.545 130.032 	0 	0 	
0.555 129.937 	0 	0 	
0.565 129.174 	0 	0 	
0.575 129.568 	0 	0 	
0.585 32.8247 	0 	0 	
0.595 22.1068 	0 	0 	
0.605 0.904994 	0 	0 	
0.615 0.0122868 	0 	0 	
0.625 5.72278e-05 	0 	0 	
0.635 4.13923e-08 	0 	0 	
0.645 -9.10391e-15 	0 	0 	
0.655 -1.1835e-13 	0 	0 	
0.665 -3.77161e-14 	0 	0 	
0.675 1.04043e-13 	0 	0 	
0.685 1.18349e-13 	0 	0 	
0.695 -2.21093e-14 	0 	0 	
0.705 4.55188e-14 	0 	0 	
0.715 5.59236e-14 	0 	0 	
0.725 1.30056e-14 	0 	0 	
0.735 -5.2022e-14 	0 	0 	
0.745 4.16177e-14 	0 	0 	
0.755 -1.43061e-14 	0 	0 	
0.765 1.95081e-14 	0 	0 	
0.775 -1.56065e-13 	0 	0 	
0.785 1.44361e-13 	0 	0 	
0.795 7.41313e-14 	0 	0 	
0.805 -3.90165e-15 	0 	0 	
0.815 3.38141e-14 	0 	0 	
0.825 1.95084e-14 	0 	0 	
0.835 1.1965e-13 	0 	0 	
0.845 3.3814e-14 	0 	0 	
0.855 7.54317e-14 	0 	0 	
0.865 1.30041e-15 	0 	0 	
0.875 1.95082e-14 	0 	0 	
0.885 1.00142e-13 	0 	0 	
0.895 9.23391e-14 	0 	0 	
0.905 4.40739e-25 	0 	0 	
0.915 -4.42187e-14 	0 	0 	
0.925 6.5025e-15 	0 	0 	
0.935 -2.60092e-15 	0 	0 	
0.945 6.50297e-15 	0 	0 	
0.955 -1.43058e-14 	0 	0 	
0.965 1.30037e-15 	0 	0 	
0.975 -7.80326e-14 	0 	0 	
0.985 -7.41313e-14 	0 	0 	
0.995 -7.93332e-14 	0 	0 	
