0.005 -0.04215 	0 	0 	
0.015 0.112685 	0 	0 	
0.025 0.0975215 	0 	0 	
0.035 0.117921 	0 	0 	
0.045 -0.031505 	0 	0 	
0.055 0.263234 	0 	0 	
0.065 -0.188712 	0 	0 	
0.075 -0.0923076 	0 	0 	
0.085 0.070265 	0 	0 	
0.095 -0.014555 	0 	0 	
0.105 0.187867 	0 	0 	
0.115 0.003515 	0 	0 	
0.125 -0.185222 	0 	0 	
0.135 -0.33724 	0 	0 	
0.145 -0.0162895 	0 	0 	
0.155 0.08134 	0 	0 	
0.165 0.172791 	0 	0 	
0.175 -0.11041 	0 	0 	
0.185 0.103101 	0 	0 	
0.195 0.226028 	0 	0 	
0.205 -0.218777 	0 	0 	
0.215 0.021883 	0 	0 	
0.225 0.03633 	0 	0 	
0.235 -0.141935 	0 	0 	
0.245 0.0106 	0 	0 	
0.255 0.26887 	0 	0 	
0.265 -0.127337 	0 	0 	
0.275 -0.104237 	0 	0 	
0.285 0.272967 	0 	0 	
0.295 -0.08644 	0 	0 	
0.305 -0.422255 	0 	0 	
0.315 0.145 	0 	0 	
0.325 -0.198995 	0 	0 	
0.335 0.069835 	0 	0 	
0.345 0.176775 	0 	0 	
0.355 -0.0545 	0 	0 	
0.365 -0.09394 	0 	0 	
0.375 -0.01723 	0 	0 	
0.385 0.147959 	0 	0 	
0.395 -0.25486 	0 	0 	
0.405 0.308903 	0 	0 	
0.415 -0.121039 	0 	0 	
0.425 0.03141 	0 	0 	
0.435 -6.00734e+10 	0 	0 	
0.445 -1.9643e+25 	0 	0 	
0.455 -8.53941e+25 	0 	0 	
0.465 -1.16399e+37 	0 	0 	
0.475 -2.00543e+46 	0 	0 	
0.485 -3.49528e+55 	0 	0 	
0.495 -1.39882e+67 	0 	0 	
0.505 -3.51603e+67 	0 	0 	
0.515 1.52197e+66 	0 	0 	
0.525 1.38171e+59 	0 	0 	
0.535 5.53514e+46 	0 	0 	
0.545 4.67013e+35 	0 	0 	
0.555 7.93421e+24 	0 	0 	
0.565 1.9841e+12 	0 	0 	
0.575 0.164435 	0 	0 	
0.585 0.17636 	0 	0 	
0.595 -0.170315 	0 	0 	
0.605 -0.040174 	0 	0 	
0.615 -0.096145 	0 	0 	
0.625 0.13032 	0 	0 	
0.635 -0.31147 	0 	0 	
0.645 0.181182 	0 	0 	
0.655 -0.075865 	0 	0 	
0.665 0.133478 	0 	0 	
0.675 0.212784 	0 	0 	
0.685 0.048495 	0 	0 	
0.695 0.0589525 	0 	0 	
0.705 0.260803 	0 	0 	
0.715 -0.030588 	0 	0 	
0.725 -0.330215 	0 	0 	
0.735 -0.09863 	0 	0 	
0.745 0.57642 	0 	0 	
0.755 -0.332333 	0 	0 	
0.765 0.09141 	0 	0 	
0.775 -0.28664 	0 	0 	
0.785 0.14934 	0 	0 	
0.795 0.234819 	0 	0 	
0.805 0.16108 	0 	0 	
0.815 -0.379105 	0 	0 	
0.825 -0.187445 	0 	0 	
0.835 0.169163 	0 	0 	
0.845 0.09175 	0 	0 	
0.855 -0.202545 	0 	0 	
0.865 0.22445 	0 	0 	
0.875 -0.112823 	0 	0 	
0.885 0.205635 	0 	0 	
0.895 0.008035 	0 	0 	
0.905 0.007115 	0 	0 	
0.915 -0.342195 	0 	0 	
0.925 0.144475 	0 	0 	
0.935 0.099095 	0 	0 	
0.945 -0.10899 	0 	0 	
0.955 -0.08224 	0 	0 	
0.965 0.11333 	0 	0 	
0.975 -0.042807 	0 	0 	
0.985 -0.160085 	0 	0 	
0.995 -0.02032 	0 	0 	
