0.005 -4.22494e-14 	0 	0 	
0.015 4.22494e-15 	0 	0 	
0.025 3.80244e-14 	0 	0 	
0.035 -1.35198e-13 	0 	0 	
0.045 -1.26748e-14 	0 	0 	
0.055 6.33741e-14 	0 	0 	
0.065 -1.68998e-14 	-9.38125e-31 	0 	
0.075 2.53496e-14 	0 	0 	
0.085 -1.22523e-13 	0 	0 	
0.095 1.26748e-14 	0 	0 	
0.105 -3.37995e-14 	0 	0 	
0.115 2.53496e-14 	0 	0 	
0.125 4.22494e-15 	0 	0 	
0.135 3.80244e-14 	0 	0 	
0.145 -5.91491e-14 	0 	0 	
0.155 9.29486e-14 	0 	0 	
0.165 3.37995e-14 	0 	0 	
0.175 -5.91491e-14 	0 	0 	
0.185 -2.11247e-14 	0 	0 	
0.195 -1.22523e-13 	0 	0 	
0.205 -8.02738e-14 	0 	0 	
0.215 4.22494e-15 	0 	0 	
0.225 -2.11247e-14 	0 	0 	
0.235 -1.22523e-13 	0 	0 	
0.245 -1.77447e-13 	0 	0 	
0.255 -4.64743e-14 	0 	0 	
0.265 6.7599e-14 	0 	0 	
0.275 -4.22494e-15 	0 	0 	
0.285 -2.53496e-14 	0 	0 	
0.295 -8.02738e-14 	0 	0 	
0.305 7.60489e-14 	0 	0 	
0.315 -8.02738e-14 	0 	0 	
0.325 4.64743e-14 	0 	0 	
0.335 -3.37995e-14 	0 	0 	
0.345 -2.53496e-14 	0 	0 	
0.355 -1.26748e-14 	0 	0 	
0.365 -1.05623e-13 	0 	0 	
0.375 -4.22494e-14 	0 	0 	
0.385 7.18239e-14 	0 	0 	
0.395 -1.22523e-13 	0 	0 	
0.405 -1.73222e-13 	0 	0 	
0.415 3.37995e-14 	0 	0 	
0.425 1.14073e-13 	0 	0 	
0.435 4.64743e-14 	0 	0 	
0.445 6.7599e-14 	0 	0 	
0.455 -2.53496e-14 	0 	0 	
0.465 -9.29486e-14 	0 	0 	
0.475 0.334136 	0 	0 	
0.485 17.8981 	0 	0 	
0.495 92.1043 	0 	0 	
0.505 129.903 	0 	0 	
0.515 100.343 	0 	0 	
0.525 6.29305 	0 	0 	
0.535 6.65426e-14 	0 	0 	
0.545 1.58437e-14 	0 	0 	
0.555 -8.87237e-14 	0 	0 	
0.565 -8.87238e-14 	0 	0 	
0.575 -5.70367e-14 	0 	0 	
0.585 -1.58434e-14 	0 	0 	
0.595 5.50917e-26 	0 	0 	
0.605 -9.50611e-15 	0 	0 	
0.615 6.3374e-15 	0 	0 	
0.625 2.2181e-14 	0 	0 	
0.635 3.1687e-15 	0 	0 	
0.645 -1.26748e-13 	0 	0 	
0.655 -1.17242e-13 	0 	0 	
0.665 7.92175e-14 	0 	0 	
0.675 -4.43619e-14 	0 	0 	
0.685 4.75306e-14 	0 	0 	
0.695 -1.58433e-14 	0 	0 	
0.705 -6.02052e-14 	0 	0 	
0.715 -1.26752e-14 	0 	0 	
0.725 4.11929e-14 	3.51796e-31 	0 	
0.735 -3.16881e-15 	0 	0 	
0.745 6.65426e-14 	0 	0 	
0.755 1.23579e-13 	0 	0 	
0.765 -6.65429e-14 	-2.11078e-30 	0 	
0.775 1.65271e-25 	0 	0 	
0.785 1.9012e-14 	0 	0 	
0.795 9.50607e-15 	0 	0 	
0.805 8.23863e-14 	0 	0 	
0.815 -4.43618e-14 	1.40719e-30 	0 	
0.825 -1.07736e-13 	3.51796e-31 	0 	
0.835 6.97112e-14 	0 	0 	
0.845 -6.33743e-15 	0 	0 	
0.855 8.55552e-14 	0 	0 	
0.865 -1.2041e-13 	0 	0 	
0.875 -3.16868e-14 	0 	0 	
0.885 8.87237e-14 	0 	0 	
0.895 -3.80243e-14 	0 	0 	
0.905 8.23859e-14 	0 	0 	
0.915 -4.11929e-14 	0 	0 	
0.925 1.33086e-13 	0 	0 	
0.935 -2.53498e-14 	0 	0 	
0.945 1.07736e-13 	0 	0 	
0.955 2.21807e-14 	0 	0 	
0.965 3.1687e-15 	0 	0 	
0.975 1.10905e-13 	0 	0 	
0.985 2.53494e-14 	0 	0 	
0.995 7.28799e-14 	0 	0 	
