0.005 4.16175e-14 	0 	0 	
0.015 -2.42771e-14 	0 	0 	
0.025 -1.12714e-13 	0 	0 	
0.035 3.12129e-14 	0 	0 	
0.045 6.93625e-14 	0 	0 	
0.055 6.93625e-15 	0 	0 	
0.065 6.06921e-14 	0 	0 	
0.075 -1.73404e-14 	0 	0 	
0.085 -5.37559e-14 	1.29951e-29 	0 	
0.095 -6.06921e-14 	0 	0 	
0.105 -9.71077e-14 	0 	0 	
0.115 -1.04044e-14 	-6.73819e-30 	0 	
0.125 1.30054e-13 	6.49754e-30 	0 	
0.135 6.58943e-14 	0 	0 	
0.145 -1.21384e-14 	0 	0 	
0.155 5.02877e-14 	0 	0 	
0.165 2.42768e-14 	0 	0 	
0.175 1.73406e-14 	0 	0 	
0.185 6.93625e-14 	0 	0 	
0.195 -1.24852e-13 	0 	0 	
0.205 -5.20218e-15 	0 	0 	
0.215 1.87278e-13 	0 	0 	
0.225 -6.93623e-14 	0 	0 	
0.235 -2.25428e-14 	0 	0 	
0.245 -1.38725e-13 	0 	0 	
0.255 -5.3756e-14 	0 	0 	
0.265 -3.4681e-14 	0 	0 	
0.275 -2.50002e-19 	0 	0 	
0.285 4.33516e-14 	0 	0 	
0.295 -1.73406e-15 	0 	0 	
0.305 -6.93625e-14 	0 	0 	
0.315 -3.46812e-14 	0 	0 	
0.325 -9.53735e-14 	0 	0 	
0.335 -5.72238e-14 	0 	0 	
0.345 2.11554e-13 	0 	0 	
0.355 7.26971e-09 	0 	0 	
0.365 4.2885e-06 	0 	0 	
0.375 0.000496878 	0 	0 	
0.385 0.0187982 	0 	0 	
0.395 0.292167 	0 	0 	
0.405 2.15562 	0 	0 	
0.415 8.63683 	0 	0 	
0.425 22.1509 	0 	0 	
0.435 42.359 	0 	0 	
0.445 67.1068 	0 	0 	
0.455 93.4253 	0 	0 	
0.465 116.389 	0 	0 	
0.475 128.361 	0 	0 	
0.485 130.188 	0 	0 	
0.495 130.183 	0 	0 	
0.505 130.153 	0 	0 	
0.515 130.129 	0 	0 	
0.525 130.104 	0 	0 	
0.535 130.071 	0 	0 	
0.545 130.02 	0 	0 	
0.555 129.927 	0 	0 	
0.565 129.691 	0 	0 	
0.575 127.447 	0 	0 	
0.585 129.511 	0 	0 	
0.595 2.8761 	0 	0 	
0.605 15.9657 	0 	0 	
0.615 0.563105 	0 	0 	
0.625 0.00813584 	0 	0 	
0.635 4.59487e-05 	0 	0 	
0.645 5.61562e-08 	0 	0 	
0.655 1.9183e-12 	0 	0 	
0.665 7.02292e-14 	0 	0 	
0.675 3.25136e-14 	0 	0 	
0.685 1.14448e-13 	0 	0 	
0.695 -2.341e-14 	0 	0 	
0.705 -2.08089e-14 	0 	0 	
0.715 -1.56065e-14 	0 	0 	
0.725 5.85244e-14 	0 	0 	
0.735 -1.32223e-24 	0 	0 	
0.745 -2.86119e-14 	0 	0 	
0.755 -8.06341e-14 	0 	0 	
0.765 -1.30054e-14 	0 	0 	
0.775 7.8033e-14 	0 	0 	
0.785 1.26153e-13 	0 	0 	
0.795 -3.25137e-14 	0 	0 	
0.805 5.98253e-14 	0 	0 	
0.815 7.41309e-14 	0 	0 	
0.825 4.55188e-14 	0 	0 	
0.835 -1.69071e-14 	0 	0 	
0.845 9.10413e-15 	0 	0 	
0.855 2.6011e-15 	0 	0 	
0.865 6.50269e-14 	0 	0 	
0.875 -5.20215e-14 	0 	0 	
0.885 1.28754e-13 	0 	0 	
0.895 1.30053e-15 	0 	0 	
0.905 -6.76281e-14 	0 	0 	
0.915 -8.81478e-25 	0 	0 	
0.925 -6.50313e-15 	0 	0 	
0.935 -9.36393e-14 	0 	0 	
0.945 2.08086e-14 	0 	0 	
0.955 -4.29179e-14 	0 	0 	
0.965 2.73114e-14 	0 	0 	
0.975 1.36557e-13 	0 	0 	
0.985 -2.21094e-14 	0 	0 	
0.995 2.08087e-14 	0 	0 	
