0.005 -1.39423e-13 	0 	0 	
0.015 1.68997e-14 	0 	0 	
0.025 2.53496e-14 	0 	0 	
0.035 5.87808e-26 	0 	0 	
0.045 8.44987e-15 	0 	0 	
0.055 1.09848e-13 	0 	0 	
0.065 -8.44988e-14 	-7.73952e-30 	0 	
0.075 8.87237e-14 	0 	0 	
0.085 3.80244e-14 	0 	0 	
0.095 -1.73222e-13 	0 	0 	
0.105 -8.81426e-25 	0 	0 	
0.115 -2.95746e-14 	0 	0 	
0.125 2.53496e-14 	0 	0 	
0.135 1.22523e-13 	0 	0 	
0.145 3.37995e-14 	0 	0 	
0.155 7.18239e-14 	0 	0 	
0.165 5.06993e-14 	0 	0 	
0.175 4.64743e-14 	0 	0 	
0.185 -4.22494e-15 	0 	0 	
0.195 1.39423e-13 	0 	0 	
0.205 2.53496e-14 	0 	0 	
0.215 6.33741e-14 	0 	0 	
0.225 6.33741e-14 	0 	0 	
0.235 -8.44987e-15 	0 	0 	
0.245 1.98572e-13 	0 	0 	
0.255 -1.01398e-13 	0 	0 	
0.265 -1.26748e-13 	0 	0 	
0.275 5.49242e-14 	0 	0 	
0.285 -1.39423e-13 	0 	0 	
0.295 5.4924e-13 	0 	0 	
0.305 3.83992e-10 	0 	0 	
0.315 8.60445e-08 	0 	0 	
0.325 7.7766e-06 	0 	0 	
0.335 0.000336937 	0 	0 	
0.345 0.00735725 	0 	0 	
0.355 0.0885476 	0 	0 	
0.365 0.633339 	0 	0 	
0.375 2.82028 	0 	0 	
0.385 8.39504 	0 	0 	
0.395 18.4473 	0 	0 	
0.405 32.7579 	0 	0 	
0.415 50.2755 	0 	0 	
0.425 69.7605 	0 	0 	
0.435 89.8888 	0 	0 	
0.445 108.729 	3.28475e-31 	0 	
0.455 122.89 	1.38009e-30 	0 	
0.465 129.183 	0 	0 	
0.475 130.179 	0 	0 	
0.485 130.184 	3.53724e-31 	0 	
0.495 130.16 	0 	0 	
0.505 130.143 	0 	0 	
0.515 130.129 	1.77119e-31 	0 	
0.525 130.116 	0 	0 	
0.535 130.106 	0 	0 	
0.545 130.096 	0 	0 	
0.555 130.085 	-4.76432e-30 	0 	
0.565 130.073 	0 	0 	
0.575 130.059 	0 	0 	
0.585 130.039 	0 	0 	
0.595 129.992 	0 	0 	
0.605 130.116 	0 	0 	
0.615 130.922 	-2.70968e-30 	0 	
0.625 107.211 	0 	0 	
0.635 75.0969 	0 	0 	
0.645 14.4253 	0 	0 	
0.655 0.624625 	0 	0 	
0.665 0.0167619 	0 	0 	
0.675 0.000273748 	0 	0 	
0.685 2.48931e-06 	0 	0 	
0.695 1.02337e-08 	0 	0 	
0.705 1.20347e-11 	0 	0 	
0.715 3.80246e-14 	0 	0 	
0.725 -1.58433e-14 	6.33233e-30 	0 	
0.735 -5.70365e-14 	0 	0 	
0.745 2.21811e-14 	0 	0 	
0.755 -2.85181e-14 	0 	0 	
0.765 5.38678e-14 	-1.75898e-29 	0 	
0.775 -2.535e-14 	0 	0 	
0.785 3.48557e-14 	0 	0 	
0.795 1.26748e-14 	0 	0 	
0.805 -1.26748e-14 	0 	0 	
0.815 2.85182e-14 	9.8503e-30 	0 	
0.825 4.11929e-14 	4.39746e-30 	0 	
0.835 -4.75305e-14 	0 	0 	
0.845 -5.38681e-14 	0 	0 	
0.855 -1.58437e-14 	0 	0 	
0.865 2.2181e-14 	0 	0 	
0.875 6.33744e-15 	0 	0 	
0.885 -1.9012e-14 	0 	0 	
0.895 6.3374e-15 	0 	0 	
0.905 3.80246e-14 	0 	0 	
0.915 9.5059e-15 	0 	0 	
0.925 5.70368e-14 	0 	0 	
0.935 7.6049e-14 	0 	0 	
0.945 7.28803e-14 	0 	0 	
0.955 -5.3868e-14 	0 	0 	
0.965 9.50611e-14 	0 	0 	
0.975 8.23861e-14 	0 	0 	
0.985 6.33769e-15 	0 	0 	
0.995 7.6049e-14 	0 	0 	
