0.005 9.04649e-14 	0 	0 	
0.015 8.87901e-14 	0 	0 	
0.025 -8.37645e-15 	0 	0 	
0.035 1.00517e-14 	0 	0 	
0.045 2.51292e-14 	0 	0 	
0.055 3.35073e-15 	0 	0 	
0.065 2.54643e-13 	0 	0 	
0.075 -8.37645e-15 	0 	0 	
0.085 -5.19335e-14 	0 	0 	
0.095 -1.15594e-13 	0 	0 	
0.105 -2.84798e-14 	0 	0 	
0.115 -1.76291e-24 	0 	0 	
0.125 1.67527e-14 	0 	0 	
0.135 -5.86348e-14 	0 	0 	
0.145 -1.10568e-13 	0 	0 	
0.155 -6.53358e-14 	0 	0 	
0.165 3.51809e-14 	0 	0 	
0.175 -1.67529e-14 	0 	0 	
0.185 5.1934e-14 	0 	0 	
0.195 5.02581e-14 	0 	0 	
0.205 4.85831e-14 	0 	0 	
0.215 -7.37124e-14 	0 	0 	
0.225 9.99953e-20 	0 	0 	
0.235 -3.35055e-14 	0 	0 	
0.245 1.22295e-13 	0 	0 	
0.255 1.1727e-13 	0 	0 	
0.265 1.28997e-13 	0 	0 	
0.275 6.7011e-14 	0 	0 	
0.285 -7.53876e-14 	0 	0 	
0.295 1.76288e-25 	0 	0 	
0.305 -4.85831e-14 	0 	0 	
0.315 -7.70627e-14 	0 	0 	
0.325 3.35056e-14 	0 	0 	
0.335 -1.59152e-13 	0 	0 	
0.345 3.68562e-14 	0 	0 	
0.355 -6.36608e-14 	0 	0 	
0.365 -1.05543e-13 	0 	0 	
0.375 -8.37638e-14 	0 	0 	
0.385 -4.52326e-14 	0 	0 	
0.395 2.84801e-14 	0 	0 	
0.405 2.17787e-14 	0 	0 	
0.415 1.84283e-14 	0 	0 	
0.425 1.21951e-05 	0 	0 	
0.435 0.0109717 	0 	0 	
0.445 0.632613 	0 	0 	
0.455 7.10088 	0 	0 	
0.465 29.4881 	0 	0 	
0.475 69.303 	0 	0 	
0.485 112.85 	0 	0 	
0.495 129.903 	0 	0 	
0.505 130.186 	0 	0 	
0.515 130.13 	0 	0 	
0.525 129.901 	0 	0 	
0.535 125.232 	0 	0 	
0.545 86.7972 	0 	0 	
0.555 11.0134 	0 	0 	
0.565 0.105087 	0 	0 	
0.575 7.22002e-05 	0 	0 	
0.585 1.8847e-14 	0 	0 	
0.595 -1.75902e-14 	0 	0 	
0.605 -1.63336e-14 	0 	0 	
0.615 2.26163e-14 	0 	0 	
0.625 -7.53875e-14 	0 	0 	
0.635 4.64891e-14 	0 	0 	
0.645 -1.15594e-13 	0 	0 	
0.655 -4.02067e-14 	0 	0 	
0.665 9.80041e-14 	0 	0 	
0.675 1.25647e-14 	0 	0 	
0.685 -2.136e-14 	0 	0 	
0.695 -8.92088e-14 	0 	0 	
0.705 -8.92086e-14 	0 	0 	
0.715 1.32216e-24 	0 	0 	
0.725 5.02585e-14 	0 	0 	
0.735 -1.2062e-13 	0 	0 	
0.745 7.53875e-14 	0 	0 	
0.755 4.39761e-14 	0 	0 	
0.765 2.01032e-14 	0 	0 	
0.775 6.91052e-14 	0 	0 	
0.785 1.13081e-14 	0 	0 	
0.795 -4.64891e-14 	0 	0 	
0.805 -3.51809e-14 	0 	0 	
0.815 1.63339e-14 	0 	0 	
0.825 6.28231e-14 	0 	0 	
0.835 3.76938e-15 	0 	0 	
0.845 1.75904e-14 	0 	0 	
0.855 -4.39761e-14 	0 	0 	
0.865 2.01032e-14 	0 	0 	
0.875 3.76939e-14 	0 	0 	
0.885 8.79517e-15 	0 	0 	
0.895 -5.77971e-14 	0 	0 	
0.905 5.65408e-14 	0 	0 	
0.915 4.52326e-14 	0 	0 	
0.925 -1.25646e-14 	0 	0 	
0.935 2.01034e-14 	0 	0 	
0.945 -3.51808e-14 	0 	0 	
0.955 3.2668e-14 	0 	0 	
0.965 -1.75903e-14 	0 	0 	
0.975 -1.00516e-13 	0 	0 	
0.985 5.02585e-14 	0 	0 	
0.995 2.38728e-14 	0 	0 	
