0.005 0 	0 	0 	
0.015 0 	0 	0 	
0.025 0 	0 	0 	
0.035 8.81725e-15 	0 	0 	
0.045 2.64517e-14 	0 	0 	
0.055 2.93908e-14 	0 	0 	
0.065 -5.8782e-15 	0 	0 	
0.075 -3.82081e-14 	0 	0 	
0.085 -2.05736e-14 	0 	0 	
0.095 0 	0 	0 	
0.105 5.87817e-15 	0 	0 	
0.115 2.93909e-14 	0 	0 	
0.125 4.11472e-14 	0 	0 	
0.135 4.38947e-25 	0 	0 	
0.145 -4.70254e-14 	-8.15761e-31 	0 	
0.155 -4.99645e-14 	0 	0 	
0.165 -4.11472e-14 	0 	0 	
0.175 -3.82081e-14 	0 	0 	
0.185 -1.46955e-14 	0 	0 	
0.195 2.93908e-14 	0 	0 	
0.205 4.99645e-14 	0 	0 	
0.215 2.93909e-14 	0 	0 	
0.225 2.9391e-15 	0 	0 	
0.235 -5.87815e-15 	9.78913e-31 	0 	
0.245 -5.87815e-15 	0 	0 	
0.255 2.49999e-20 	0 	0 	
0.265 8.81727e-15 	0 	0 	
0.275 5.87818e-15 	0 	0 	
0.285 0 	0 	0 	
0.295 0 	0 	0 	
0.305 0 	0 	0 	
0.315 3.8208e-14 	0 	0 	
0.325 1.09334e-12 	0 	0 	
0.335 2.88353e-11 	0 	0 	
0.345 6.02163e-10 	0 	0 	
0.355 1.01478e-08 	0 	0 	
0.365 1.41598e-07 	0 	0 	
0.375 1.6652e-06 	0 	0 	
0.385 1.67027e-05 	0 	0 	
0.395 0.000143997 	0 	0 	
0.405 0.00107158 	0 	0 	
0.415 0.00689295 	0 	0 	
0.425 0.0382769 	0 	0 	
0.435 0.182846 	0 	0 	
0.445 0.747749 	0 	0 	
0.455 2.60758 	0 	0 	
0.465 7.75323 	0 	0 	
0.475 19.7756 	0 	0 	
0.485 43.4966 	0 	0 	
0.495 78.773 	0 	0 	
0.505 102.781 	0 	0 	
0.515 91.5427 	0 	0 	
0.525 58.5427 	0 	0 	
0.535 28.6618 	0 	0 	
0.545 10.6847 	0 	0 	
0.555 3.10649 	0 	0 	
0.565 0.738428 	0 	0 	
0.575 0.148853 	0 	0 	
0.585 0.0258787 	0 	0 	
0.595 0.00390277 	0 	0 	
0.605 0.000510964 	0 	0 	
0.615 5.79444e-05 	0 	0 	
0.625 5.66305e-06 	0 	0 	
0.635 4.73063e-07 	0 	0 	
0.645 3.33612e-08 	0 	0 	
0.655 1.95057e-09 	0 	0 	
0.665 9.20567e-11 	0 	0 	
0.675 3.35057e-12 	0 	0 	
0.685 8.59684e-14 	0 	0 	
0.695 2.86561e-14 	0 	0 	
0.705 4.84949e-14 	0 	0 	
0.715 2.86561e-14 	0 	0 	
0.725 4.40863e-15 	0 	0 	
0.735 0 	0 	0 	
0.745 0 	0 	0 	
0.755 0 	0 	0 	
0.765 0 	0 	0 	
0.775 -2.20431e-15 	0 	0 	
0.785 -1.32259e-14 	0 	0 	
0.795 -1.54302e-14 	0 	0 	
0.805 4.40862e-15 	0 	0 	
0.815 1.54302e-14 	-9.78913e-31 	0 	
0.825 8.81726e-15 	0 	0 	
0.835 2.20432e-15 	0 	0 	
0.845 0 	0 	0 	
0.855 -2.20431e-15 	0 	0 	
0.865 -1.10216e-14 	0 	0 	
0.875 -8.81727e-15 	0 	0 	
0.885 8.81726e-15 	0 	0 	
0.895 1.10216e-14 	0 	0 	
0.905 -2.20431e-15 	0 	0 	
0.915 -1.76345e-14 	0 	0 	
0.925 -2.42474e-14 	0 	0 	
0.935 1.99997e-20 	0 	0 	
0.945 2.64518e-14 	0 	0 	
0.955 1.76345e-14 	0 	0 	
0.965 2.20432e-15 	0 	0 	
0.975 0 	0 	0 	
0.985 0 	0 	0 	
0.995 0 	0 	0 	
