0.005 4.70256e-14 	0 	0 	
0.015 5.84934e-25 	0 	0 	
0.025 -4.70253e-14 	0 	0 	
0.035 -1.75483e-24 	0 	0 	
0.045 1.17563e-13 	0 	0 	
0.055 9.40508e-14 	0 	0 	
0.065 2.35125e-14 	0 	0 	
0.075 7.05381e-14 	0 	0 	
0.085 3.50998e-24 	0 	0 	
0.095 7.05381e-14 	0 	0 	
0.105 2.92503e-24 	0 	0 	
0.115 -4.70254e-14 	0 	0 	
0.125 -1.17026e-24 	0 	0 	
0.135 -2.35127e-14 	0 	0 	
0.145 -1.17001e-24 	0 	0 	
0.155 2.92504e-24 	0 	0 	
0.165 -4.70253e-14 	0 	0 	
0.175 4.70254e-14 	0 	0 	
0.185 7.05383e-14 	0 	0 	
0.195 2.9237e-24 	0 	0 	
0.205 -4.70253e-14 	8.81022e-30 	0 	
0.215 -9.40508e-14 	0 	0 	
0.225 -2.35127e-14 	0 	0 	
0.235 -7.0538e-14 	0 	0 	
0.245 2.35126e-14 	0 	0 	
0.255 -2.35125e-14 	0 	0 	
0.265 -1.64589e-13 	0 	0 	
0.275 -2.35126e-14 	0 	0 	
0.285 4.70256e-14 	0 	0 	
0.295 1.1051e-11 	0 	0 	
0.305 1.05626e-09 	0 	0 	
0.315 6.16508e-08 	0 	0 	
0.325 2.31149e-06 	0 	0 	
0.335 5.74977e-05 	0 	0 	
0.345 0.000970782 	0 	0 	
0.355 0.0113019 	0 	0 	
0.365 0.0917012 	0 	0 	
0.375 0.52323 	0 	0 	
0.385 2.13023 	0 	0 	
0.395 6.37532 	0 	0 	
0.405 14.7132 	0 	0 	
0.415 27.7118 	0 	0 	
0.425 44.8825 	0 	0 	
0.435 65.0656 	0 	0 	
0.445 86.6365 	0 	0 	
0.455 107.109 	0 	0 	
0.465 122.427 	0 	0 	
0.475 129.14 	0 	0 	
0.485 130.198 	0 	0 	
0.495 130.202 	0 	0 	
0.505 130.174 	-4.93208e-31 	0 	
0.515 130.152 	1.11287e-30 	0 	
0.525 130.133 	-2.04138e-30 	0 	
0.535 130.116 	-9.94811e-31 	0 	
0.545 130.1 	-1.12031e-30 	0 	
0.555 130.083 	0 	0 	
0.565 130.058 	0 	0 	
0.575 129.953 	2.19846e-30 	0 	
0.585 129.267 	2.3701e-30 	0 	
0.595 125.529 	2.04804e-30 	0 	
0.605 110.155 	1.59225e-30 	0 	
0.615 68.1117 	-3.93876e-31 	0 	
0.625 18.7101 	0 	0 	
0.635 2.32865 	0 	0 	
0.645 0.197204 	0 	0 	
0.655 0.012596 	0 	0 	
0.665 0.000593632 	0 	0 	
0.675 1.99264e-05 	0 	0 	
0.685 4.59086e-07 	0 	0 	
0.695 6.96222e-09 	0 	0 	
0.705 6.59178e-11 	0 	0 	
0.715 3.35056e-13 	0 	0 	
0.725 5.29035e-14 	0 	0 	
0.735 -8.81724e-14 	0 	0 	
0.745 -8.81725e-14 	0 	0 	
0.755 2.17709e-24 	-3.30382e-30 	0 	
0.765 3.5269e-14 	0 	0 	
0.775 -5.29035e-14 	0 	0 	
0.785 -3.52691e-14 	0 	0 	
0.795 -3.52691e-14 	-3.54856e-30 	0 	
0.805 -5.29036e-14 	-3.54856e-30 	0 	
0.815 -5.29035e-14 	0 	0 	
0.825 -1.23441e-13 	0 	0 	
0.835 -3.5269e-14 	0 	0 	
0.845 -1.76345e-14 	0 	0 	
0.855 1.76345e-14 	0 	0 	
0.865 8.81725e-14 	0 	0 	
0.875 1.23441e-13 	0 	0 	
0.885 7.0538e-14 	0 	0 	
0.895 8.81725e-14 	0 	0 	
0.905 -3.5269e-14 	0 	0 	
0.915 -9.35172e-30 	0 	0 	
0.925 5.29035e-14 	0 	0 	
0.935 1.76345e-14 	0 	0 	
0.945 8.6771e-25 	0 	0 	
0.955 3.5269e-14 	0 	0 	
0.965 5.29035e-14 	0 	0 	
0.975 -1.76345e-14 	0 	0 	
0.985 -3.5269e-14 	0 	0 	
0.995 5.29035e-14 	0 	0 	
