0.005 6.25388e-14 	0 	0 	
0.015 2.62258e-14 	0 	0 	
0.025 -4.70722e-14 	0 	0 	
0.035 3.29509e-14 	0 	0 	
0.045 4.10204e-14 	0 	0 	
0.055 5.37952e-15 	0 	0 	
0.065 3.36232e-14 	0 	0 	
0.075 -1.07594e-13 	0 	0 	
0.085 -1.27769e-14 	0 	0 	
0.095 3.29509e-14 	0 	0 	
0.105 -6.72465e-14 	0 	0 	
0.115 -3.36252e-15 	1.86646e-30 	0 	
0.125 1.68115e-14 	0 	0 	
0.135 -2.21913e-14 	0 	0 	
0.145 6.11942e-14 	0 	0 	
0.155 8.94375e-14 	0 	0 	
0.165 4.63999e-14 	0 	0 	
0.175 8.4058e-14 	0 	0 	
0.185 -1.81565e-14 	0 	0 	
0.195 7.73334e-14 	0 	0 	
0.205 1.74841e-14 	0 	0 	
0.215 3.36231e-15 	0 	0 	
0.225 9.07823e-14 	0 	0 	
0.235 1.33148e-13 	0 	0 	
0.245 8.67476e-14 	0 	0 	
0.255 -9.41448e-15 	0 	0 	
0.265 8.74198e-15 	0 	0 	
0.275 6.05217e-14 	0 	0 	
0.285 6.45562e-14 	0 	0 	
0.295 8.20405e-14 	0 	0 	
0.305 2.55538e-14 	0 	0 	
0.315 -6.45563e-14 	0 	0 	
0.325 -8.40581e-14 	0 	0 	
0.335 -8.06948e-15 	0 	0 	
0.345 3.49681e-14 	0 	0 	
0.355 -9.28001e-14 	0 	0 	
0.365 2.95884e-14 	0 	0 	
0.375 -1.68114e-14 	0 	0 	
0.385 -6.72463e-14 	0 	0 	
0.395 -4.03479e-15 	0 	0 	
0.405 7.93504e-14 	0 	0 	
0.415 -2.89158e-14 	0 	0 	
0.425 -3.36232e-14 	0 	0 	
0.435 -6.72464e-14 	0 	0 	
0.445 -1.27769e-14 	0 	0 	
0.455 -1.75513e-13 	0 	0 	
0.465 0.360221 	0 	0 	
0.475 10.9492 	0 	0 	
0.485 56.2918 	0 	0 	
0.495 120.456 	0 	0 	
0.505 130.165 	0 	0 	
0.515 127.144 	0 	0 	
0.525 80.1887 	0 	0 	
0.535 3.21313 	0 	0 	
0.545 -2.97566e-14 	0 	0 	
0.555 1.56348e-14 	0 	0 	
0.565 -3.88349e-14 	0 	0 	
0.575 -7.81739e-14 	0 	0 	
0.585 2.16872e-14 	0 	0 	
0.595 4.84171e-14 	0 	0 	
0.605 1.62904e-13 	0 	0 	
0.615 -3.68171e-14 	0 	0 	
0.625 8.82608e-14 	0 	0 	
0.635 -3.63129e-14 	0 	0 	
0.645 1.92661e-13 	0 	0 	
0.655 9.07823e-15 	0 	0 	
0.665 -9.58259e-15 	0 	0 	
0.675 -1.51305e-14 	0 	0 	
0.685 1.44748e-13 	0 	0 	
0.695 1.56346e-14 	0 	0 	
0.705 8.7756e-14 	0 	0 	
0.715 2.67305e-14 	0 	0 	
0.725 4.28694e-14 	0 	0 	
0.735 -2.52174e-14 	0 	0 	
0.745 -1.41217e-13 	0 	0 	
0.755 7.61565e-14 	0 	0 	
0.765 -4.13565e-14 	0 	0 	
0.775 -1.51304e-14 	0 	0 	
0.785 2.57215e-14 	0 	0 	
0.795 -4.9426e-14 	0 	0 	
0.805 4.0852e-14 	0 	0 	
0.815 1.81564e-14 	0 	0 	
0.825 1.26088e-14 	0 	0 	
0.835 -9.48172e-14 	0 	0 	
0.845 3.37913e-14 	0 	0 	
0.855 -1.17008e-13 	0 	0 	
0.865 3.63131e-14 	0 	0 	
0.875 1.26087e-14 	0 	0 	
0.885 -2.52161e-15 	0 	0 	
0.895 5.04347e-14 	0 	0 	
0.905 -1.00871e-15 	0 	0 	
0.915 4.43828e-14 	0 	0 	
0.925 8.06954e-14 	0 	0 	
0.935 9.17912e-14 	0 	0 	
0.945 -3.12692e-14 	0 	0 	
0.955 -2.72346e-14 	0 	0 	
0.965 9.83476e-14 	0 	0 	
0.975 -5.04345e-15 	0 	0 	
0.985 4.03495e-15 	0 	0 	
0.995 -6.85912e-14 	0 	0 	
