0.005 -7.27426e-14 	0 	0 	
0.015 8.0825e-14 	0 	0 	
0.025 1.9398e-13 	0 	0 	
0.035 -8.0825e-14 	0 	0 	
0.045 -6.466e-14 	0 	0 	
0.055 -6.466e-14 	0 	0 	
0.065 3.23299e-14 	0 	0 	
0.075 6.466e-14 	0 	0 	
0.085 -5.01733e-20 	0 	0 	
0.095 1.6165e-14 	0 	0 	
0.105 2.42475e-14 	0 	0 	
0.115 1.29319e-13 	0 	0 	
0.125 7.27422e-14 	0 	0 	
0.135 -9.69899e-14 	0 	0 	
0.145 2.42475e-14 	0 	0 	
0.155 1.05073e-13 	0 	0 	
0.165 4.04125e-14 	0 	0 	
0.175 2.42471e-14 	0 	0 	
0.185 -7.27425e-14 	0 	0 	
0.195 5.65775e-14 	0 	0 	
0.205 2.42475e-14 	0 	0 	
0.215 8.08288e-15 	0 	0 	
0.225 1.2932e-13 	0 	0 	
0.235 2.42475e-14 	0 	0 	
0.245 4.04124e-14 	0 	0 	
0.255 -3.233e-14 	0 	0 	
0.265 -1.6165e-14 	0 	0 	
0.275 1.6165e-14 	0 	0 	
0.285 -7.2742e-14 	0 	0 	
0.295 -4.84946e-14 	0 	0 	
0.305 -6.46601e-14 	0 	0 	
0.315 -9.699e-14 	4.26235e-30 	0 	
0.325 -4.04121e-14 	0 	0 	
0.335 -1.6165e-14 	-4.26235e-30 	0 	
0.345 -8.89074e-14 	0 	0 	
0.355 -7.27421e-14 	-2.13117e-30 	0 	
0.365 1.20833e-11 	8.52469e-30 	0 	
0.375 9.51746e-08 	0 	0 	
0.385 3.60065e-05 	0 	0 	
0.395 0.00311283 	0 	0 	
0.405 0.0878788 	0 	0 	
0.415 1.02366 	0 	0 	
0.425 5.68963 	0 	0 	
0.435 18.0754 	0 	0 	
0.445 39.3292 	-5.0429e-31 	0 	
0.455 67.1763 	-5.54738e-31 	0 	
0.465 97.2285 	-2.42231e-30 	0 	
0.475 121.239 	0 	0 	
0.485 129.742 	0 	0 	
0.495 130.205 	-5.93012e-31 	0 	
0.505 130.17 	-5.93614e-31 	0 	
0.515 130.14 	0 	0 	
0.525 130.116 	0 	0 	
0.535 130.092 	0 	0 	
0.545 130.056 	0 	0 	
0.555 129.761 	0 	0 	
0.565 126.627 	0 	0 	
0.575 105.146 	0 	0 	
0.585 37.8645 	0 	0 	
0.595 2.22567 	0 	0 	
0.605 0.0447854 	0 	0 	
0.615 0.000342205 	0 	0 	
0.625 6.67379e-07 	0 	0 	
0.635 6.25888e-11 	0 	0 	
0.645 -9.0928e-14 	0 	0 	
0.655 -1.21238e-14 	0 	0 	
0.665 -7.88042e-14 	0 	0 	
0.675 -4.84949e-14 	0 	0 	
0.685 -1.15176e-13 	0 	0 	
0.695 3.03095e-14 	0 	0 	
0.705 6.0619e-15 	0 	0 	
0.715 -1.81856e-14 	0 	0 	
0.725 5.45569e-14 	0 	0 	
0.735 6.06186e-14 	0 	0 	
0.745 3.63712e-14 	0 	0 	
0.755 -2.42476e-14 	0 	0 	
0.765 1.21238e-14 	0 	0 	
0.775 2.42476e-14 	0 	0 	
0.785 1.32217e-24 	0 	0 	
0.795 1.81856e-14 	0 	0 	
0.805 9.09282e-14 	0 	0 	
0.815 3.63714e-14 	0 	0 	
0.825 -1.21237e-14 	0 	0 	
0.835 4.84948e-14 	0 	0 	
0.845 -6.06184e-14 	0 	0 	
0.855 6.06197e-15 	0 	0 	
0.865 5.45568e-14 	0 	0 	
0.875 -3.03094e-14 	0 	0 	
0.885 4.24331e-14 	0 	0 	
0.895 1.21237e-14 	0 	0 	
0.905 4.24332e-14 	0 	0 	
0.915 -9.69901e-14 	0 	0 	
0.925 -6.06186e-15 	0 	0 	
0.935 -3.63712e-14 	0 	0 	
0.945 3.03095e-14 	0 	0 	
0.955 7.27425e-14 	0 	0 	
0.965 6.0618e-15 	0 	0 	
0.975 -1.81856e-14 	0 	0 	
0.985 -1.39423e-13 	0 	0 	
0.995 2.42476e-14 	0 	0 	
