0.005 5.31247e-14 	0 	0 	
0.015 1.95014e-14 	0 	0 	
0.025 7.73334e-14 	0 	0 	
0.035 -3.2951e-14 	0 	0 	
0.045 2.21913e-14 	0 	0 	
0.055 -9.54895e-14 	0 	0 	
0.065 -4.90896e-14 	0 	0 	
0.075 -5.71596e-14 	0 	0 	
0.085 -4.70712e-15 	0 	0 	
0.095 -7.86783e-14 	0 	0 	
0.105 -2.95882e-14 	0 	0 	
0.115 -1.04904e-13 	6.06599e-30 	0 	
0.125 -1.17681e-13 	0 	0 	
0.135 -5.98494e-14 	0 	0 	
0.145 -1.26423e-13 	0 	0 	
0.155 3.36232e-14 	0 	0 	
0.165 -2.08465e-14 	0 	0 	
0.175 1.34492e-13 	0 	0 	
0.185 -7.66604e-14 	0 	0 	
0.195 -7.26259e-14 	0 	0 	
0.205 -9.21275e-14 	0 	0 	
0.215 1.34493e-15 	0 	0 	
0.225 -3.02608e-14 	0 	0 	
0.235 -5.37962e-15 	0 	0 	
0.245 -2.89161e-14 	0 	0 	
0.255 -4.37098e-14 	0 	0 	
0.265 -2.82435e-14 	0 	0 	
0.275 -7.06087e-14 	0 	0 	
0.285 3.56405e-14 	0 	0 	
0.295 -6.05234e-15 	0 	0 	
0.305 2.08461e-14 	0 	0 	
0.315 9.48174e-14 	0 	0 	
0.325 6.72465e-15 	0 	0 	
0.335 -2.55536e-14 	0 	0 	
0.345 -2.21912e-14 	0 	0 	
0.355 2.55538e-14 	0 	0 	
0.365 2.41796e-10 	0 	0 	
0.375 7.41366e-07 	0 	0 	
0.385 0.000174196 	0 	0 	
0.395 0.0100941 	0 	0 	
0.405 0.216967 	0 	0 	
0.415 1.93124 	0 	0 	
0.425 8.62571 	0 	0 	
0.435 23.5565 	0 	0 	
0.445 46.4764 	0 	0 	
0.455 74.5521 	0 	0 	
0.465 103.268 	0 	0 	
0.475 124.047 	0 	0 	
0.485 129.989 	0 	0 	
0.495 130.199 	0 	0 	
0.505 130.164 	0 	0 	
0.515 130.138 	0 	0 	
0.525 130.115 	0 	0 	
0.535 130.094 	0 	0 	
0.545 130.07 	0 	0 	
0.555 129.978 	0 	0 	
0.565 128.614 	0 	0 	
0.575 115.971 	0 	0 	
0.585 69.5189 	0 	0 	
0.595 8.10178 	0 	0 	
0.605 0.194846 	0 	0 	
0.615 0.00205865 	0 	0 	
0.625 6.09159e-06 	0 	0 	
0.635 1.4448e-09 	0 	0 	
0.645 1.20035e-13 	0 	0 	
0.655 4.89216e-14 	0 	0 	
0.665 5.74955e-14 	0 	0 	
0.675 7.06084e-14 	0 	0 	
0.685 -5.04347e-14 	0 	0 	
0.695 -1.16001e-14 	0 	0 	
0.705 -1.06417e-13 	0 	0 	
0.715 -2.47128e-14 	0 	0 	
0.725 1.18522e-13 	0 	0 	
0.735 1.71476e-14 	0 	0 	
0.745 -5.44696e-14 	0 	0 	
0.755 -7.56532e-15 	0 	0 	
0.765 -4.38781e-14 	0 	0 	
0.775 -9.83476e-14 	0 	0 	
0.785 -1.25078e-13 	0 	0 	
0.795 -1.56852e-13 	0 	0 	
0.805 -3.07651e-14 	0 	0 	
0.815 -5.29564e-14 	0 	0 	
0.825 -2.77389e-14 	0 	0 	
0.835 4.43828e-14 	0 	0 	
0.845 1.51331e-15 	0 	0 	
0.855 -2.97566e-14 	0 	0 	
0.865 4.18606e-14 	0 	0 	
0.875 1.13478e-13 	0 	0 	
0.885 8.67476e-14 	0 	0 	
0.895 1.58365e-13 	0 	0 	
0.905 5.85044e-14 	0 	0 	
0.915 2.7739e-14 	0 	0 	
0.925 2.0426e-13 	0 	0 	
0.935 9.68346e-14 	0 	0 	
0.945 3.88344e-14 	0 	0 	
0.955 7.71652e-14 	0 	0 	
0.965 1.24573e-13 	0 	0 	
0.975 2.52175e-15 	0 	0 	
0.985 1.46262e-14 	0 	0 	
0.995 -7.06086e-15 	0 	0 	
