0.005 -1.64773e-13 	0 	0 	
0.015 3.37995e-14 	0 	0 	
0.025 -5.49242e-14 	0 	0 	
0.035 -2.95746e-14 	0 	0 	
0.045 -5.06992e-14 	0 	0 	
0.055 7.18239e-14 	0 	0 	
0.065 -6.7599e-14 	-2.81437e-30 	0 	
0.075 2.11247e-14 	0 	0 	
0.085 9.71736e-14 	0 	0 	
0.095 7.60489e-14 	0 	0 	
0.105 5.06993e-14 	0 	0 	
0.115 3.37995e-14 	0 	0 	
0.125 4.22494e-14 	0 	0 	
0.135 -3.80244e-14 	0 	0 	
0.145 -2.95746e-14 	0 	0 	
0.155 -1.01399e-13 	0 	0 	
0.165 9.71736e-14 	0 	0 	
0.175 -1.68998e-14 	0 	0 	
0.185 6.7599e-14 	0 	0 	
0.195 -3.37995e-14 	0 	0 	
0.205 2.11247e-14 	0 	0 	
0.215 8.02738e-14 	0 	0 	
0.225 3.80244e-14 	0 	0 	
0.235 2.11247e-14 	0 	0 	
0.245 -3.37995e-14 	0 	0 	
0.255 -3.37995e-14 	0 	0 	
0.265 -6.33741e-14 	0 	0 	
0.275 -1.26748e-13 	0 	0 	
0.285 -6.33741e-14 	0 	0 	
0.295 6.33741e-14 	0 	0 	
0.305 -3.37995e-14 	0 	0 	
0.315 -2.11247e-14 	0 	0 	
0.325 -5.49242e-14 	0 	0 	
0.335 9.71736e-14 	0 	0 	
0.345 4.22494e-15 	0 	0 	
0.355 -5.91491e-14 	0 	0 	
0.365 -6.7599e-14 	0 	0 	
0.375 -4.64743e-14 	0 	0 	
0.385 -7.60489e-14 	0 	0 	
0.395 -1.09848e-13 	0 	0 	
0.405 8.87237e-14 	0 	0 	
0.415 -4.22494e-15 	0 	0 	
0.425 0.000307124 	0 	0 	
0.435 0.0551871 	0 	0 	
0.445 1.46581 	0 	0 	
0.455 10.9598 	0 	0 	
0.465 36.4142 	0 	0 	
0.475 75.9827 	0 	0 	
0.485 115.838 	6.71743e-31 	0 	
0.495 129.938 	0 	0 	
0.505 130.188 	0 	0 	
0.515 130.138 	0 	0 	
0.525 130.062 	0 	0 	
0.535 128.842 	0 	0 	
0.545 115.031 	0 	0 	
0.555 45.7734 	-6.27889e-31 	0 	
0.565 1.60986 	0 	0 	
0.575 0.00772698 	0 	0 	
0.585 4.63547e-07 	0 	0 	
0.595 9.82299e-14 	0 	0 	
0.605 9.50609e-15 	0 	0 	
0.615 5.3868e-14 	0 	0 	
0.625 -1.58435e-14 	0 	0 	
0.635 6.97111e-14 	0 	0 	
0.645 7.28802e-14 	0 	0 	
0.655 4.43617e-14 	0 	0 	
0.665 4.43617e-14 	0 	0 	
0.675 1.26747e-14 	0 	0 	
0.685 8.23863e-14 	0 	0 	
0.695 -1.86954e-13 	0 	0 	
0.705 -9.5061e-15 	0 	0 	
0.715 -1.26748e-14 	0 	0 	
0.725 2.535e-14 	2.11078e-30 	0 	
0.735 -6.02054e-14 	0 	0 	
0.745 7.60486e-14 	0 	0 	
0.755 -3.16868e-14 	0 	0 	
0.765 -1.33085e-13 	-7.73954e-30 	0 	
0.775 -1.23579e-13 	0 	0 	
0.785 1.90122e-14 	0 	0 	
0.795 1.90126e-14 	0 	0 	
0.805 7.60489e-14 	0 	0 	
0.815 -2.85185e-14 	3.51796e-30 	0 	
0.825 -1.04567e-13 	1.58309e-30 	0 	
0.835 2.21807e-14 	0 	0 	
0.845 2.21807e-14 	0 	0 	
0.855 -5.70366e-14 	0 	0 	
0.865 -5.06991e-14 	0 	0 	
0.875 1.58435e-14 	0 	0 	
0.885 -4.11931e-14 	0 	0 	
0.895 -1.2358e-13 	0 	0 	
0.905 6.02054e-14 	0 	0 	
0.915 -1.04567e-13 	0 	0 	
0.925 -6.97114e-14 	0 	0 	
0.935 3.80243e-14 	0 	0 	
0.945 8.55551e-14 	0 	0 	
0.955 6.33738e-14 	0 	0 	
0.965 2.20367e-25 	0 	0 	
0.975 6.33769e-15 	0 	0 	
0.985 -1.58436e-14 	0 	0 	
0.995 -1.26747e-14 	0 	0 	
