0.005 4.40862e-14 	0 	0 	
0.015 1.46955e-14 	0 	0 	
0.025 5.87817e-14 	0 	0 	
0.035 -2.93907e-14 	0 	0 	
0.045 -2.93908e-14 	0 	0 	
0.055 -8.81725e-14 	0 	0 	
0.065 2.93908e-14 	0 	0 	
0.075 1.46955e-14 	0 	0 	
0.085 1.46954e-14 	0 	0 	
0.095 -1.02868e-13 	0 	0 	
0.105 -7.34768e-14 	0 	0 	
0.115 2.49963e-20 	0 	0 	
0.125 6.52608e-30 	0 	0 	
0.135 4.4086e-14 	0 	0 	
0.145 2.61042e-29 	0 	0 	
0.155 1.46955e-14 	0 	0 	
0.165 5.87818e-14 	0 	0 	
0.175 1.32259e-13 	0 	0 	
0.185 4.40863e-14 	0 	0 	
0.195 -2.93909e-14 	0 	0 	
0.205 -4.40864e-14 	0 	0 	
0.215 -7.34771e-14 	0 	0 	
0.225 1.82647e-24 	0 	0 	
0.235 2.93906e-14 	0 	0 	
0.245 4.40861e-14 	0 	0 	
0.255 2.93907e-14 	0 	0 	
0.265 -8.81726e-14 	0 	0 	
0.275 -1.02868e-13 	0 	0 	
0.285 -7.34771e-14 	0 	0 	
0.295 -1.74998e-19 	0 	0 	
0.305 1.46953e-14 	0 	0 	
0.315 2.93907e-14 	0 	0 	
0.325 8.81727e-14 	0 	0 	
0.335 -1.82407e-24 	0 	0 	
0.345 5.87818e-14 	0 	0 	
0.355 5.87815e-14 	0 	0 	
0.365 -7.34771e-14 	0 	0 	
0.375 -1.46952e-14 	0 	0 	
0.385 -2.9391e-14 	0 	0 	
0.395 7.34773e-14 	0 	0 	
0.405 4.40864e-14 	0 	0 	
0.415 -2.93908e-14 	0 	0 	
0.425 3.15544e-30 	0 	0 	
0.435 5.64748e-07 	0 	0 	
0.445 0.00458133 	0 	0 	
0.455 0.448144 	0 	0 	
0.465 6.88026 	0 	0 	
0.475 33.6204 	0 	0 	
0.485 83.9874 	0 	0 	
0.495 126.352 	0 	0 	
0.505 130.191 	0 	0 	
0.515 129.774 	0 	0 	
0.525 121.163 	0 	0 	
0.535 65.1706 	0 	0 	
0.545 4.57185 	0 	0 	
0.555 0.0292963 	0 	0 	
0.565 2.26493e-06 	0 	0 	
0.575 -1.10216e-14 	0 	0 	
0.585 -2.20432e-14 	0 	0 	
0.595 -6.61294e-14 	0 	0 	
0.605 -2.20431e-14 	0 	0 	
0.615 8.81726e-14 	0 	0 	
0.625 1.87367e-13 	0 	0 	
0.635 1.10216e-14 	0 	0 	
0.645 -6.61292e-14 	0 	0 	
0.655 -2.20431e-14 	0 	0 	
0.665 1.10216e-14 	0 	0 	
0.675 0 	0 	0 	
0.685 8.81725e-14 	0 	0 	
0.695 6.61295e-14 	0 	0 	
0.705 -3.30647e-14 	0 	0 	
0.715 2.20433e-14 	0 	0 	
0.725 -5.51079e-14 	0 	0 	
0.735 -1.10216e-14 	0 	0 	
0.745 -5.51079e-14 	0 	0 	
0.755 6.61293e-14 	0 	0 	
0.765 -4.40863e-14 	0 	0 	
0.775 -4.40861e-14 	0 	0 	
0.785 -4.40863e-14 	0 	0 	
0.795 1.25004e-19 	0 	0 	
0.805 -5.51079e-14 	0 	0 	
0.815 -2.20432e-14 	0 	0 	
0.825 2.50014e-20 	0 	0 	
0.835 -1.10215e-14 	0 	0 	
0.845 4.40863e-14 	0 	0 	
0.855 8.81725e-14 	0 	0 	
0.865 3.30646e-14 	0 	0 	
0.875 2.20432e-14 	0 	0 	
0.885 -2.49973e-20 	0 	0 	
0.895 3.30648e-14 	0 	0 	
0.905 -6.61295e-14 	0 	0 	
0.915 -7.71511e-14 	0 	0 	
0.925 -7.7151e-14 	0 	0 	
0.935 -1.10216e-14 	0 	0 	
0.945 2.20432e-14 	0 	0 	
0.955 9.91941e-14 	0 	0 	
0.965 6.61295e-14 	0 	0 	
0.975 4.40863e-14 	0 	0 	
0.985 2.20433e-14 	0 	0 	
0.995 -5.51079e-14 	0 	0 	
