0.005 1.90923e-13 	0 	0 	
0.015 -3.40934e-14 	0 	0 	
0.025 8.52335e-14 	0 	0 	
0.035 4.0912e-14 	0 	0 	
0.045 5.79586e-14 	0 	0 	
0.055 -8.1824e-14 	0 	0 	
0.065 -6.81865e-14 	0 	0 	
0.075 -1.70465e-14 	0 	0 	
0.085 2.00185e-19 	0 	0 	
0.095 7.84151e-14 	0 	0 	
0.105 6.8187e-15 	0 	0 	
0.115 -1.02278e-14 	0 	0 	
0.125 2.35049e-24 	0 	0 	
0.135 -4.43215e-14 	0 	0 	
0.145 3.40934e-15 	0 	0 	
0.155 1.0228e-14 	0 	0 	
0.165 2.38651e-14 	0 	0 	
0.175 1.70465e-14 	0 	0 	
0.185 1.09099e-13 	-2.36571e-30 	0 	
0.195 1.60239e-13 	0 	0 	
0.205 -7.15963e-14 	0 	0 	
0.215 7.84149e-14 	0 	0 	
0.225 -3.40937e-14 	0 	0 	
0.235 1.26146e-13 	0 	0 	
0.245 1.15917e-13 	0 	0 	
0.255 -1.19327e-13 	-2.12913e-30 	0 	
0.265 -2.38651e-14 	-1.30114e-30 	0 	
0.275 3.40934e-14 	0 	0 	
0.285 7.1596e-14 	0 	0 	
0.295 1.19327e-13 	0 	0 	
0.305 9.54613e-14 	0 	0 	
0.315 2.38654e-14 	0 	0 	
0.325 -3.40934e-14 	0 	0 	
0.335 -1.19327e-13 	0 	0 	
0.345 1.15917e-13 	0 	0 	
0.355 9.20524e-14 	-9.46282e-31 	0 	
0.365 -1.02279e-14 	0 	0 	
0.375 -8.52335e-14 	0 	0 	
0.385 -7.50054e-14 	0 	0 	
0.395 -1.02281e-14 	0 	0 	
0.405 -1.02281e-14 	0 	0 	
0.415 -3.06842e-14 	0 	0 	
0.425 -9.99883e-20 	0 	0 	
0.435 -1.02281e-14 	0 	0 	
0.445 0.000205883 	0 	0 	
0.455 0.206897 	0 	0 	
0.465 5.76432 	0 	0 	
0.475 33.1029 	0 	0 	
0.485 85.7052 	0 	0 	
0.495 127.614 	7.12634e-31 	0 	
0.505 130.184 	0 	0 	
0.515 129.898 	0 	0 	
0.525 123.576 	0 	0 	
0.535 65.8432 	0 	0 	
0.545 2.2063 	0 	0 	
0.555 0.00111257 	0 	0 	
0.565 2.04564e-14 	0 	0 	
0.575 -2.55703e-14 	0 	0 	
0.585 -1.15065e-13 	0 	0 	
0.595 -8.9495e-14 	0 	0 	
0.605 -3.8355e-14 	0 	0 	
0.615 4.34693e-14 	0 	0 	
0.625 5.11402e-14 	0 	0 	
0.635 -5.88109e-14 	0 	0 	
0.645 -4.8583e-14 	0 	0 	
0.655 -8.69379e-14 	0 	0 	
0.665 -4.60258e-14 	0 	0 	
0.675 -5.114e-14 	0 	0 	
0.685 5.62541e-14 	0 	0 	
0.695 -8.9495e-14 	0 	0 	
0.705 -9.7166e-14 	0 	0 	
0.715 -3.32409e-14 	0 	0 	
0.725 5.114e-14 	0 	0 	
0.735 8.18243e-14 	0 	0 	
0.745 -1.15065e-13 	0 	0 	
0.755 2.8127e-14 	0 	0 	
0.765 -1.04837e-13 	0 	0 	
0.775 -3.83552e-14 	0 	0 	
0.785 3.8355e-14 	0 	0 	
0.795 -1.76269e-25 	0 	0 	
0.805 -7.15965e-14 	0 	0 	
0.815 5.114e-15 	0 	0 	
0.825 -6.39253e-14 	0 	0 	
0.835 2.0456e-14 	0 	0 	
0.845 8.9495e-14 	0 	0 	
0.855 8.43814e-14 	0 	0 	
0.865 2.0456e-14 	0 	0 	
0.875 -6.3925e-14 	0 	0 	
0.885 -1.5342e-14 	0 	0 	
0.895 -2.3013e-14 	0 	0 	
0.905 5.114e-15 	0 	0 	
0.915 -2.00009e-19 	0 	0 	
0.925 -1.15065e-13 	0 	0 	
0.935 5.11398e-14 	0 	0 	
0.945 7.671e-15 	0 	0 	
0.955 -4.6026e-14 	0 	0 	
0.965 -1.2785e-14 	0 	0 	
0.975 -3.8355e-14 	0 	0 	
0.985 -2.0456e-14 	0 	0 	
0.995 6.6482e-14 	0 	0 	
