0.005 -3.5269e-14 	0 	0 	
0.015 -1.05807e-13 	0 	0 	
0.025 1.05807e-13 	0 	0 	
0.035 7.0538e-14 	0 	0 	
0.045 7.0538e-14 	0 	0 	
0.055 1.05807e-13 	0 	0 	
0.065 -1.05807e-13 	0 	0 	
0.075 -3.5269e-14 	0 	0 	
0.085 -2.63252e-24 	0 	0 	
0.095 3.5269e-14 	0 	0 	
0.105 2.11614e-13 	0 	0 	
0.115 -2.82152e-13 	0 	0 	
0.125 -3.52689e-14 	-1.95782e-30 	0 	
0.135 1.41076e-13 	0 	0 	
0.145 -7.0538e-14 	0 	0 	
0.155 3.52689e-14 	0 	0 	
0.165 1.76345e-13 	0 	0 	
0.175 -2.63134e-24 	-4.16038e-30 	0 	
0.185 -7.0538e-14 	-3.91565e-30 	0 	
0.195 -3.5269e-14 	0 	0 	
0.205 -1.76345e-13 	0 	0 	
0.215 -3.52691e-14 	0 	0 	
0.225 -7.0538e-14 	0 	0 	
0.235 -1.05807e-13 	0 	0 	
0.245 -3.52689e-14 	0 	0 	
0.255 7.0538e-14 	-4.64984e-30 	0 	
0.265 -3.5269e-14 	-4.64984e-30 	0 	
0.275 3.5269e-14 	0 	0 	
0.285 4.37655e-35 	0 	0 	
0.295 7.05379e-14 	0 	0 	
0.305 -1.05807e-13 	0 	0 	
0.315 -1.05807e-13 	0 	0 	
0.325 1.05807e-13 	0 	0 	
0.335 7.05381e-14 	0 	0 	
0.345 1.05807e-13 	0 	0 	
0.355 -1.05807e-13 	-4.16038e-30 	0 	
0.365 7.05379e-14 	0 	0 	
0.375 -2.46883e-13 	0 	0 	
0.385 1.05807e-13 	0 	0 	
0.395 3.5269e-13 	0 	0 	
0.405 4.19382e-06 	0 	0 	
0.415 0.0025845 	4.64986e-30 	0 	
0.425 0.155327 	4.1618e-30 	0 	
0.435 2.27141 	-2.09197e-30 	0 	
0.445 12.289 	3.79474e-30 	0 	
0.455 35.0226 	1.0816e-30 	0 	
0.465 68.3397 	1.49774e-30 	0 	
0.475 104.533 	0 	0 	
0.485 127.258 	3.64906e-31 	0 	
0.495 130.208 	1.84863e-31 	0 	
0.505 130.171 	-1.85167e-31 	0 	
0.515 130.129 	0 	0 	
0.525 130.082 	0 	0 	
0.535 129.979 	0 	0 	
0.545 132.069 	0 	0 	
0.555 145.566 	0 	0 	
0.565 70.8858 	0 	0 	
0.575 3.43338 	0 	0 	
0.585 0.0305571 	0 	0 	
0.595 3.00795e-05 	0 	0 	
0.605 -1.05807e-13 	0 	0 	
0.615 -5.29036e-14 	0 	0 	
0.625 5.29035e-14 	0 	0 	
0.635 -7.93552e-14 	0 	0 	
0.645 5.29036e-14 	0 	0 	
0.655 -5.29037e-14 	0 	0 	
0.665 -2.64517e-14 	0 	0 	
0.675 5.29035e-14 	0 	0 	
0.685 2.94438e-24 	0 	0 	
0.695 7.93553e-14 	0 	0 	
0.705 2.6452e-14 	0 	0 	
0.715 -5.29037e-14 	0 	0 	
0.725 -2.64518e-14 	0 	0 	
0.735 -5.29035e-14 	0 	0 	
0.745 -1.05807e-13 	0 	0 	
0.755 2.6452e-14 	0 	0 	
0.765 -3.91878e-24 	0 	0 	
0.775 -2.6452e-14 	0 	0 	
0.785 -2.6452e-14 	0 	0 	
0.795 1.05807e-13 	0 	0 	
0.805 1.05807e-13 	0 	0 	
0.815 7.93553e-14 	0 	0 	
0.825 7.93553e-14 	0 	0 	
0.835 1.5871e-13 	0 	0 	
0.845 2.6452e-14 	0 	0 	
0.855 -5.29035e-14 	0 	0 	
0.865 7.93555e-14 	0 	0 	
0.875 -2.64517e-14 	0 	0 	
0.885 -7.93553e-14 	0 	0 	
0.895 -1.5871e-13 	0 	0 	
0.905 2.6452e-14 	0 	0 	
0.915 2.64515e-14 	0 	0 	
0.925 1.05807e-13 	0 	0 	
0.935 7.93555e-14 	0 	0 	
0.945 -5.29035e-14 	0 	0 	
0.955 5.29035e-14 	0 	0 	
0.965 -1.32259e-13 	0 	0 	
0.975 -1.58711e-13 	0 	0 	
0.985 -1.05807e-13 	0 	0 	
0.995 7.93555e-14 	0 	0 	
