0.005 4.70254e-14 	0 	0 	
0.015 9.40508e-14 	0 	0 	
0.025 2.35127e-14 	0 	0 	
0.035 9.40507e-14 	0 	0 	
0.045 5.84867e-25 	0 	0 	
0.055 1.17563e-13 	0 	0 	
0.065 0 	0 	0 	
0.075 2.35127e-14 	0 	0 	
0.085 -4.70253e-14 	0 	0 	
0.095 -5.85006e-25 	0 	0 	
0.105 4.70256e-14 	0 	0 	
0.115 2.35127e-14 	0 	0 	
0.125 -2.35126e-14 	0 	0 	
0.135 -4.70254e-14 	0 	0 	
0.145 -4.70253e-14 	0 	0 	
0.155 2.34004e-24 	0 	0 	
0.165 2.35125e-14 	0 	0 	
0.175 -2.35127e-14 	0 	0 	
0.185 -7.05381e-14 	0 	0 	
0.195 2.35127e-14 	0 	0 	
0.205 -4.09125e-24 	1.20733e-29 	0 	
0.215 -2.35127e-14 	0 	0 	
0.225 -1.17564e-13 	0 	0 	
0.235 5.87817e-13 	0 	0 	
0.245 3.60449e-11 	0 	0 	
0.255 1.48922e-09 	0 	0 	
0.265 4.50904e-08 	0 	0 	
0.275 1.01619e-06 	0 	0 	
0.285 1.7239e-05 	0 	0 	
0.295 0.000221989 	0 	0 	
0.305 0.00218298 	0 	0 	
0.315 0.0164602 	0 	0 	
0.325 0.095432 	0 	0 	
0.335 0.426803 	0 	0 	
0.345 1.48334 	0 	0 	
0.355 4.07265 	0 	0 	
0.365 9.08304 	0 	0 	
0.375 17.0566 	0 	0 	
0.385 27.9857 	0 	0 	
0.395 41.4375 	0 	0 	
0.405 56.7774 	0 	0 	
0.415 73.2861 	0 	0 	
0.425 90.1054 	0 	0 	
0.435 106.001 	0 	0 	
0.445 119.04 	0 	0 	
0.455 127.005 	0 	0 	
0.465 129.803 	0 	0 	
0.475 130.202 	0 	0 	
0.485 130.195 	0 	0 	
0.495 130.174 	0 	0 	
0.505 130.156 	-7.39055e-31 	0 	
0.515 130.142 	1.35587e-30 	0 	
0.525 130.13 	-1.48405e-30 	0 	
0.535 130.119 	-1.26814e-30 	0 	
0.545 130.109 	-1.23747e-30 	0 	
0.555 130.099 	0 	0 	
0.565 130.09 	0 	0 	
0.575 130.081 	3.20191e-30 	0 	
0.585 130.071 	3.04257e-30 	0 	
0.595 130.058 	3.38023e-30 	0 	
0.605 130.03 	3.54834e-30 	0 	
0.615 129.893 	-3.37959e-30 	0 	
0.625 129.174 	0 	0 	
0.635 125.879 	0 	0 	
0.645 113.44 	0 	0 	
0.655 78.5433 	0 	0 	
0.665 28.0918 	0 	0 	
0.675 4.61285 	0 	0 	
0.685 0.518578 	0 	0 	
0.695 0.0479349 	0 	0 	
0.705 0.00366654 	0 	0 	
0.715 0.000227145 	0 	0 	
0.725 1.11554e-05 	0 	0 	
0.735 4.25868e-07 	0 	0 	
0.745 1.2398e-08 	0 	0 	
0.755 2.69755e-10 	-4.89456e-30 	0 	
0.765 4.19702e-12 	0 	0 	
0.775 -1.05807e-13 	0 	0 	
0.785 -3.5269e-14 	0 	0 	
0.795 -8.81725e-14 	-4.89456e-30 	0 	
0.805 -8.81725e-14 	-5.13929e-30 	0 	
0.815 -5.29035e-14 	0 	0 	
0.825 -5.29035e-14 	0 	0 	
0.835 -5.29035e-14 	0 	0 	
0.845 -7.0538e-14 	0 	0 	
0.855 1.05807e-13 	0 	0 	
0.865 8.81725e-14 	0 	0 	
0.875 1.76346e-14 	0 	0 	
0.885 5.29035e-14 	0 	0 	
0.895 5.29035e-14 	0 	0 	
0.905 7.0538e-14 	0 	0 	
0.915 5.29035e-14 	0 	0 	
0.925 7.0538e-14 	0 	0 	
0.935 1.76346e-14 	0 	0 	
0.945 -1.76345e-14 	0 	0 	
0.955 5.29034e-14 	0 	0 	
0.965 1.76346e-14 	0 	0 	
0.975 -5.29035e-14 	0 	0 	
0.985 3.5269e-14 	0 	0 	
0.995 -1.56626e-29 	0 	0 	
