0.005 -3.52689e-14 	0 	0 	
0.015 3.52689e-14 	0 	0 	
0.025 1.05807e-13 	0 	0 	
0.035 7.05379e-14 	0 	0 	
0.045 -7.0538e-14 	0 	0 	
0.055 1.05807e-13 	0 	0 	
0.065 -2.11614e-13 	0 	0 	
0.075 -1.41076e-13 	0 	0 	
0.085 -1.41076e-13 	0 	0 	
0.095 -7.0538e-14 	0 	0 	
0.105 -7.05381e-14 	0 	0 	
0.115 -1.76345e-13 	0 	0 	
0.125 3.5269e-14 	-2.32492e-30 	0 	
0.135 3.5269e-14 	0 	0 	
0.145 1.05807e-13 	0 	0 	
0.155 -1.05807e-13 	0 	0 	
0.165 1.76345e-13 	0 	0 	
0.175 1.05807e-13 	-4.64984e-30 	0 	
0.185 1.87033e-29 	-4.64984e-30 	0 	
0.195 3.5269e-14 	0 	0 	
0.205 -1.05807e-13 	0 	0 	
0.215 -1.41076e-13 	0 	0 	
0.225 6.5753e-24 	0 	0 	
0.235 3.5269e-14 	0 	0 	
0.245 -3.5269e-14 	0 	0 	
0.255 -1.05807e-13 	-5.38403e-30 	0 	
0.265 1.76345e-13 	-5.13929e-30 	0 	
0.275 -3.5269e-14 	0 	0 	
0.285 -7.0538e-14 	0 	0 	
0.295 3.52691e-14 	0 	0 	
0.305 -3.5269e-14 	0 	0 	
0.315 3.5269e-14 	0 	0 	
0.325 -3.5269e-14 	0 	0 	
0.335 -1.05807e-13 	0 	0 	
0.345 -3.5269e-14 	0 	0 	
0.355 -1.41076e-13 	-4.64984e-30 	0 	
0.365 7.0538e-14 	0 	0 	
0.375 -3.52691e-14 	0 	0 	
0.385 -7.05381e-14 	0 	0 	
0.395 4.59849e-06 	0 	0 	
0.405 0.00162432 	0 	0 	
0.415 0.0873596 	5.14029e-30 	0 	
0.425 1.33331 	4.91067e-30 	0 	
0.435 7.95387 	-2.24981e-30 	0 	
0.445 24.8113 	3.93665e-30 	0 	
0.455 51.8388 	1.1391e-30 	0 	
0.465 84.7309 	1.26315e-30 	0 	
0.475 115.19 	0 	0 	
0.485 129.178 	-1.22479e-46 	0 	
0.495 130.206 	1.84818e-31 	0 	
0.505 130.164 	-1.85038e-31 	0 	
0.515 130.125 	0 	0 	
0.525 130.074 	0 	0 	
0.535 129.996 	0 	0 	
0.545 129.825 	0 	0 	
0.555 139.375 	0 	0 	
0.565 986.329 	0 	0 	
0.575 39.734 	0 	0 	
0.585 2.15777 	0 	0 	
0.595 0.0210032 	0 	0 	
0.605 3.70244e-05 	0 	0 	
0.615 -7.93551e-14 	0 	0 	
0.625 -2.64517e-14 	0 	0 	
0.635 -7.93555e-14 	0 	0 	
0.645 7.93552e-14 	0 	0 	
0.655 5.29036e-14 	0 	0 	
0.665 2.64518e-14 	0 	0 	
0.675 2.64517e-14 	0 	0 	
0.685 7.93553e-14 	0 	0 	
0.695 2.64517e-14 	0 	0 	
0.705 2.64515e-14 	0 	0 	
0.715 -1.05807e-13 	0 	0 	
0.725 -2.6452e-14 	0 	0 	
0.735 7.93553e-14 	0 	0 	
0.745 7.93553e-14 	0 	0 	
0.755 5.29035e-14 	0 	0 	
0.765 -2.64515e-14 	0 	0 	
0.775 -2.64517e-14 	0 	0 	
0.785 5.29035e-14 	0 	0 	
0.795 -1.32259e-13 	0 	0 	
0.805 7.9355e-14 	0 	0 	
0.815 1.05807e-13 	0 	0 	
0.825 7.93552e-14 	0 	0 	
0.835 1.05807e-13 	0 	0 	
0.845 -9.77928e-25 	0 	0 	
0.855 1.58711e-13 	0 	0 	
0.865 5.29035e-14 	0 	0 	
0.875 -2.93377e-24 	0 	0 	
0.885 -2.64518e-14 	0 	0 	
0.895 -7.93555e-14 	0 	0 	
0.905 -7.93555e-14 	0 	0 	
0.915 -2.64518e-14 	0 	0 	
0.925 -1.05807e-13 	0 	0 	
0.935 3.5241e-29 	0 	0 	
0.945 -2.38066e-13 	0 	0 	
0.955 2.64517e-14 	0 	0 	
0.965 -2.6452e-14 	0 	0 	
0.975 -5.29037e-14 	0 	0 	
0.985 1.05807e-13 	0 	0 	
0.995 7.9355e-14 	0 	0 	
