0.005 -2.04557e-14 	0 	0 	
0.015 3.40936e-14 	0 	0 	
0.025 1.70468e-14 	0 	0 	
0.035 2.38651e-14 	0 	0 	
0.045 1.12508e-13 	0 	0 	
0.055 -6.47773e-14 	0 	0 	
0.065 9.54618e-14 	0 	0 	
0.075 -1.87514e-13 	0 	0 	
0.085 -2.0456e-14 	0 	0 	
0.095 -5.45496e-14 	0 	0 	
0.105 -5.79586e-14 	0 	0 	
0.115 -7.15962e-14 	0 	0 	
0.125 1.17525e-24 	0 	0 	
0.135 1.39783e-13 	0 	0 	
0.145 1.5683e-13 	0 	0 	
0.155 -3.75027e-14 	0 	0 	
0.165 5.45495e-14 	0 	0 	
0.175 -1.0228e-13 	0 	0 	
0.185 3.40934e-14 	-7.09712e-31 	0 	
0.195 6.81871e-14 	0 	0 	
0.205 2.21607e-13 	0 	0 	
0.215 1.26146e-13 	0 	0 	
0.225 1.36374e-13 	0 	0 	
0.235 -3.0684e-14 	0 	0 	
0.245 1.36374e-14 	0 	0 	
0.255 -2.72747e-14 	-9.46283e-31 	0 	
0.265 -1.29555e-13 	-3.54856e-31 	0 	
0.275 -1.36373e-13 	0 	0 	
0.285 1.36374e-13 	0 	0 	
0.295 6.13678e-14 	0 	0 	
0.305 1.0228e-13 	0 	0 	
0.315 2.38655e-14 	0 	0 	
0.325 3.40937e-14 	0 	0 	
0.335 1.67058e-13 	0 	0 	
0.345 -8.52337e-14 	0 	0 	
0.355 1.39783e-13 	-3.54856e-31 	0 	
0.365 1.19327e-13 	0 	0 	
0.375 5.114e-14 	0 	0 	
0.385 -2.04561e-14 	0 	0 	
0.395 3.40935e-15 	0 	0 	
0.405 -1.15917e-13 	0 	0 	
0.415 -2.38652e-14 	0 	0 	
0.425 -1.19327e-13 	0 	0 	
0.435 2.38654e-14 	0 	0 	
0.445 -3.4093e-15 	0 	0 	
0.455 -1.43192e-13 	0 	0 	
0.465 -3.40936e-14 	0 	0 	
0.475 1.70466e-14 	0 	0 	
0.485 7.89907 	0 	0 	
0.495 80.3216 	3.12588e-31 	0 	
0.505 125.77 	0 	0 	
0.515 47.2754 	0 	0 	
0.525 -1.83589e-24 	0 	0 	
0.535 -1.07394e-13 	0 	0 	
0.545 -2.8127e-14 	0 	0 	
0.555 -6.9039e-14 	0 	0 	
0.565 5.11436e-15 	0 	0 	
0.575 -1.2785e-14 	0 	0 	
0.585 -1.0228e-14 	0 	0 	
0.595 -8.81461e-26 	0 	0 	
0.605 -6.39249e-14 	0 	0 	
0.615 -1.0228e-14 	0 	0 	
0.625 2.557e-14 	0 	0 	
0.635 -9.46089e-14 	0 	0 	
0.645 -6.64825e-14 	0 	0 	
0.655 -1.17622e-13 	0 	0 	
0.665 -6.3925e-14 	0 	0 	
0.675 -2.55698e-14 	0 	0 	
0.685 -2.30129e-14 	0 	0 	
0.695 -2.8127e-14 	0 	0 	
0.705 1.63648e-13 	0 	0 	
0.715 4.8583e-14 	0 	0 	
0.725 -3.8355e-14 	0 	0 	
0.735 4.09125e-14 	0 	0 	
0.745 -2.07117e-13 	0 	0 	
0.755 -8.9495e-14 	0 	0 	
0.765 6.9039e-14 	0 	0 	
0.775 -6.39252e-14 	0 	0 	
0.785 2.30131e-14 	0 	0 	
0.795 8.1824e-14 	0 	0 	
0.805 -1.50863e-13 	0 	0 	
0.815 -2.557e-14 	0 	0 	
0.825 2.557e-14 	0 	0 	
0.835 -1.0228e-14 	0 	0 	
0.845 -5.114e-14 	0 	0 	
0.855 -9.97235e-14 	0 	0 	
0.865 2.8127e-14 	0 	0 	
0.875 1.2785e-14 	0 	0 	
0.885 -1.53422e-14 	0 	0 	
0.895 -5.36971e-14 	0 	0 	
0.905 5.114e-14 	0 	0 	
0.915 2.30133e-14 	0 	0 	
0.925 3.83552e-14 	0 	0 	
0.935 6.13679e-14 	0 	0 	
0.945 -1.76292e-25 	0 	0 	
0.955 -4.3469e-14 	0 	0 	
0.965 7.67099e-14 	0 	0 	
0.975 -5.47798e-24 	0 	0 	
0.985 7.671e-15 	0 	0 	
0.995 1.7899e-14 	0 	0 	
