0.005 1.71672e-13 	0 	0 	
0.015 7.28304e-14 	0 	0 	
0.025 1.248e-19 	0 	0 	
0.035 7.10963e-14 	0 	0 	
0.045 -3.46808e-15 	0 	0 	
0.055 5.72241e-14 	0 	0 	
0.065 1.04043e-13 	0 	0 	
0.075 7.80327e-14 	0 	0 	
0.085 1.12714e-13 	1.92519e-29 	0 	
0.095 6.93623e-15 	0 	0 	
0.105 -6.41603e-14 	0 	0 	
0.115 2.42767e-14 	-9.86662e-30 	0 	
0.125 8.67031e-14 	9.86662e-30 	0 	
0.135 1.40459e-13 	0 	0 	
0.145 7.62986e-14 	0 	0 	
0.155 1.04044e-13 	0 	0 	
0.165 8.15007e-14 	0 	0 	
0.175 1.73406e-13 	0 	0 	
0.185 1.14448e-13 	0 	0 	
0.195 3.81491e-14 	0 	0 	
0.205 1.04044e-14 	0 	0 	
0.215 -1.04044e-14 	0 	0 	
0.225 -1.12714e-13 	0 	0 	
0.235 -5.87647e-25 	0 	0 	
0.245 -1.1753e-24 	0 	0 	
0.255 -1.04043e-14 	0 	0 	
0.265 4.33514e-14 	0 	0 	
0.275 3.46811e-14 	0 	0 	
0.285 6.15765e-12 	0 	0 	
0.295 2.47108e-09 	0 	0 	
0.305 3.58573e-07 	0 	0 	
0.315 2.32357e-05 	0 	0 	
0.325 0.000747392 	0 	0 	
0.335 0.0130839 	0 	0 	
0.345 0.132628 	0 	0 	
0.355 0.817856 	0 	0 	
0.365 3.24511 	0 	0 	
0.375 8.9423 	0 	0 	
0.385 18.7019 	0 	0 	
0.395 32.1891 	0 	0 	
0.405 48.4702 	0 	0 	
0.415 66.5149 	0 	0 	
0.425 85.2861 	0 	0 	
0.435 103.429 	0 	0 	
0.445 118.596 	0 	0 	
0.455 127.517 	0 	0 	
0.465 130.008 	0 	0 	
0.475 130.191 	0 	0 	
0.485 130.167 	0 	0 	
0.495 130.145 	0 	0 	
0.505 130.121 	0 	0 	
0.515 130.086 	0 	0 	
0.525 -520918 	0 	0 	
0.535 -7.20195e+14 	0 	0 	
0.545 -7.68274e+18 	0 	0 	
0.555 -3.32722e+23 	0 	0 	
0.565 -3.80486e+31 	0 	0 	
0.575 -1.30019e+39 	0 	0 	
0.585 -3.14509e+44 	0 	0 	
0.595 1.78058e+40 	0 	0 	
0.605 -2.04981e+50 	0 	0 	
0.615 1.13439e+50 	0 	0 	
0.625 2.26768e+34 	0 	0 	
0.635 1.37566e+29 	0 	0 	
0.645 1.67059e+26 	0 	0 	
0.655 6.48772e+20 	0 	0 	
0.665 9.22112e+08 	0 	0 	
0.675 0.0296921 	0 	0 	
0.685 0.000514223 	0 	0 	
0.695 5.35673e-06 	0 	0 	
0.705 2.74713e-08 	0 	0 	
0.715 5.3931e-11 	0 	0 	
0.725 7.80329e-14 	0 	0 	
0.735 8.45354e-14 	0 	0 	
0.745 3.38141e-14 	0 	0 	
0.755 1.27453e-13 	0 	0 	
0.765 1.13147e-13 	0 	0 	
0.775 1.4306e-13 	0 	0 	
0.785 2.99127e-14 	0 	0 	
0.795 8.0634e-14 	0 	0 	
0.805 1.48262e-13 	0 	0 	
0.815 5.20213e-15 	0 	0 	
0.825 -7.80325e-14 	0 	0 	
0.835 1.44361e-13 	0 	0 	
0.845 5.98252e-14 	0 	0 	
0.855 -5.59233e-14 	0 	0 	
0.865 -5.07211e-14 	0 	0 	
0.875 -4.55191e-14 	0 	0 	
0.885 -5.20218e-14 	0 	0 	
0.895 -4.29177e-14 	0 	0 	
0.905 -1.31355e-13 	0 	0 	
0.915 4.42183e-14 	0 	0 	
0.925 -6.50263e-15 	0 	0 	
0.935 -7.54318e-14 	0 	0 	
0.945 2.6011e-15 	0 	0 	
0.955 1.95084e-14 	0 	0 	
0.965 6.76283e-14 	0 	0 	
0.975 3.90166e-14 	0 	0 	
0.985 6.24263e-14 	0 	0 	
0.995 -7.80328e-15 	0 	0 	
