0.005 -5.87815e-14 	0 	0 	
0.015 7.34768e-14 	0 	0 	
0.025 -4.40862e-14 	0 	0 	
0.035 -2.93908e-14 	0 	0 	
0.045 -1.17563e-13 	0 	0 	
0.055 1.46954e-14 	0 	0 	
0.065 2.93908e-14 	0 	0 	
0.075 -1.02868e-13 	0 	0 	
0.085 -7.34771e-14 	0 	0 	
0.095 -1.02868e-13 	0 	0 	
0.105 -1.46954e-13 	0 	0 	
0.115 1.02868e-13 	0 	0 	
0.125 1.6165e-13 	0 	0 	
0.135 1.46954e-13 	0 	0 	
0.145 1.9104e-13 	0 	0 	
0.155 1.46954e-13 	0 	0 	
0.165 2.20432e-13 	0 	0 	
0.175 8.81727e-14 	0 	0 	
0.185 2.35127e-13 	0 	0 	
0.195 -2.93908e-14 	0 	0 	
0.205 1.46955e-14 	0 	0 	
0.215 -4.40865e-14 	0 	0 	
0.225 -1.46954e-13 	0 	0 	
0.235 -1.46954e-13 	0 	0 	
0.245 -1.32259e-13 	0 	0 	
0.255 -1.32259e-13 	0 	0 	
0.265 -2.35127e-13 	0 	0 	
0.275 -1.76346e-13 	0 	0 	
0.285 -2.35127e-13 	0 	0 	
0.295 -2.93909e-14 	0 	0 	
0.305 -9.99982e-20 	0 	0 	
0.315 1.17563e-13 	0 	0 	
0.325 1.46954e-13 	0 	0 	
0.335 1.37843e-11 	0 	0 	
0.345 8.54251e-09 	0 	0 	
0.355 1.53851e-06 	0 	0 	
0.365 0.000108909 	0 	0 	
0.375 0.00357636 	0 	0 	
0.385 0.0600657 	0 	0 	
0.395 0.550227 	0 	0 	
0.405 2.92032 	0 	0 	
0.415 9.77611 	0 	0 	
0.425 23.0383 	0 	0 	
0.435 42.4828 	0 	0 	
0.445 66.3195 	0 	0 	
0.455 91.8499 	0 	0 	
0.465 114.573 	0 	0 	
0.475 127.518 	0 	0 	
0.485 130.146 	0 	0 	
0.495 130.197 	0 	0 	
0.505 130.167 	0 	0 	
0.515 130.143 	0 	0 	
0.525 130.122 	0 	0 	
0.535 130.104 	0 	0 	
0.545 130.086 	0 	0 	
0.555 130.061 	0 	0 	
0.565 129.938 	0 	0 	
0.575 128.822 	0 	0 	
0.585 121.174 	0 	0 	
0.595 86.8972 	0 	0 	
0.605 23.1929 	0 	0 	
0.615 1.62275 	0 	0 	
0.625 0.0589785 	0 	0 	
0.635 0.00124809 	0 	0 	
0.645 1.34346e-05 	0 	0 	
0.655 6.01795e-08 	0 	0 	
0.665 8.0182e-11 	0 	0 	
0.675 8.81727e-14 	0 	0 	
0.685 2.2043e-14 	0 	0 	
0.695 -2.20432e-14 	0 	0 	
0.705 -4.40863e-14 	0 	0 	
0.715 -1.36075e-24 	0 	0 	
0.725 -1.10216e-14 	0 	0 	
0.735 -1.10215e-13 	0 	0 	
0.745 -1.10216e-13 	0 	0 	
0.755 -4.40863e-14 	0 	0 	
0.765 -1.32259e-13 	0 	0 	
0.775 -1.21237e-13 	0 	0 	
0.785 -1.4328e-13 	0 	0 	
0.795 -8.81726e-14 	0 	0 	
0.805 1.10216e-14 	0 	0 	
0.815 5.51079e-14 	0 	0 	
0.825 -1.10216e-14 	0 	0 	
0.835 5.51079e-14 	0 	0 	
0.845 7.71509e-14 	0 	0 	
0.855 8.81728e-14 	0 	0 	
0.865 5.51079e-14 	0 	0 	
0.875 4.40863e-14 	0 	0 	
0.885 3.30647e-14 	0 	0 	
0.895 6.61295e-14 	0 	0 	
0.905 3.30648e-14 	0 	0 	
0.915 -4.40863e-14 	0 	0 	
0.925 -3.30647e-14 	0 	0 	
0.935 -3.30648e-14 	0 	0 	
0.945 -1.26218e-29 	0 	0 	
0.955 7.71511e-14 	0 	0 	
0.965 7.7151e-14 	0 	0 	
0.975 7.7151e-14 	0 	0 	
0.985 -1.35581e-24 	0 	0 	
0.995 2.2043e-14 	0 	0 	
