0.005 -4.04125e-14 	0 	0 	
0.015 4.84946e-14 	0 	0 	
0.025 -2.42475e-14 	0 	0 	
0.035 -4.04121e-14 	0 	0 	
0.045 8.0825e-14 	0 	0 	
0.055 -1.61651e-14 	0 	0 	
0.065 -3.233e-14 	0 	0 	
0.075 5.65775e-14 	0 	0 	
0.085 -2.42471e-14 	0 	0 	
0.095 3.23299e-14 	0 	0 	
0.105 1.6165e-14 	0 	0 	
0.115 8.0825e-14 	0 	0 	
0.125 -1.76287e-24 	0 	0 	
0.135 -4.04125e-14 	0 	0 	
0.145 5.65775e-14 	0 	0 	
0.155 -1.6165e-14 	0 	0 	
0.165 -8.08262e-15 	0 	0 	
0.175 -4.04125e-14 	0 	0 	
0.185 -3.23299e-14 	0 	0 	
0.195 8.89072e-14 	0 	0 	
0.205 8.08212e-15 	0 	0 	
0.215 7.27426e-14 	0 	0 	
0.225 -5.65774e-14 	0 	0 	
0.235 7.27425e-14 	0 	0 	
0.245 -6.46601e-14 	0 	0 	
0.255 8.08251e-15 	0 	0 	
0.265 2.42475e-14 	0 	0 	
0.275 -1.05072e-13 	0 	0 	
0.285 9.69899e-14 	0 	0 	
0.295 5.65775e-14 	0 	0 	
0.305 -1.17524e-24 	0 	0 	
0.315 -1.6165e-14 	1.57034e-30 	0 	
0.325 -1.21237e-13 	0 	0 	
0.335 -1.05073e-13 	-1.57034e-30 	0 	
0.345 -8.89075e-14 	0 	0 	
0.355 5.65775e-14 	-7.8517e-31 	0 	
0.365 -4.84949e-14 	3.14068e-30 	0 	
0.375 -1.61646e-14 	0 	0 	
0.385 1.6165e-14 	0 	0 	
0.395 2.15361e-29 	0 	0 	
0.405 3.23299e-14 	0 	0 	
0.415 0 	0 	0 	
0.425 -5.87618e-25 	0 	0 	
0.435 -7.27425e-14 	0 	0 	
0.445 -6.46601e-14 	0 	0 	
0.455 0.0288867 	0 	0 	
0.465 2.22155 	-1.57899e-30 	0 	
0.475 21.4047 	0 	0 	
0.485 71.6592 	0 	0 	
0.495 124.502 	-2.51424e-31 	0 	
0.505 130.181 	-8.84411e-32 	0 	
0.515 129.166 	0 	0 	
0.525 108.508 	0 	0 	
0.535 25.1387 	0 	0 	
0.545 0.208473 	0 	0 	
0.555 -4.84951e-14 	0 	0 	
0.565 -4.84951e-14 	0 	0 	
0.575 6.06188e-14 	0 	0 	
0.585 -1.81856e-14 	0 	0 	
0.595 -3.63712e-14 	0 	0 	
0.605 -5.45569e-14 	0 	0 	
0.615 6.06187e-14 	0 	0 	
0.625 -8.81442e-25 	0 	0 	
0.635 4.8495e-14 	0 	0 	
0.645 -6.06186e-15 	0 	0 	
0.655 -8.07601e-30 	0 	0 	
0.665 -7.88043e-14 	0 	0 	
0.675 -4.84951e-14 	0 	0 	
0.685 -3.63712e-14 	0 	0 	
0.695 6.06186e-15 	0 	0 	
0.705 1.15176e-13 	0 	0 	
0.715 1.21237e-14 	0 	0 	
0.725 6.06186e-15 	0 	0 	
0.735 3.03094e-14 	0 	0 	
0.745 4.84949e-14 	0 	0 	
0.755 -4.84949e-14 	0 	0 	
0.765 -2.42475e-14 	0 	0 	
0.775 -6.06191e-15 	0 	0 	
0.785 -3.63713e-14 	0 	0 	
0.795 1.81855e-14 	0 	0 	
0.805 1.21237e-14 	0 	0 	
0.815 7.8804e-14 	0 	0 	
0.825 -9.699e-14 	0 	0 	
0.835 6.06182e-14 	0 	0 	
0.845 3.63713e-14 	0 	0 	
0.855 5.45569e-14 	0 	0 	
0.865 1.09114e-13 	0 	0 	
0.875 3.03094e-14 	0 	0 	
0.885 1.15176e-13 	0 	0 	
0.895 -6.06197e-15 	0 	0 	
0.905 3.63713e-14 	0 	0 	
0.915 -6.66806e-14 	0 	0 	
0.925 -3.63712e-14 	0 	0 	
0.935 -6.66806e-14 	0 	0 	
0.945 6.06186e-14 	0 	0 	
0.955 1.45485e-13 	0 	0 	
0.965 -8.48663e-14 	0 	0 	
0.975 3.63712e-14 	0 	0 	
0.985 -7.27423e-14 	0 	0 	
0.995 1.09114e-13 	0 	0 	
