0.005 -1.76345e-13 	0 	0 	
0.015 -1.41076e-13 	0 	0 	
0.025 3.0408e-30 	0 	0 	
0.035 -1.76345e-13 	0 	0 	
0.045 3.76361e-29 	0 	0 	
0.055 -1.05807e-13 	0 	0 	
0.065 -3.5269e-14 	0 	0 	
0.075 3.52689e-14 	0 	0 	
0.085 -3.5269e-14 	0 	0 	
0.095 1.41076e-13 	0 	0 	
0.105 -6.58143e-24 	0 	0 	
0.115 -1.05807e-13 	0 	0 	
0.125 2.11614e-13 	-2.44728e-31 	0 	
0.135 3.52689e-14 	0 	0 	
0.145 -7.89754e-24 	0 	0 	
0.155 -3.5269e-14 	0 	0 	
0.165 -5.26505e-24 	0 	0 	
0.175 -1.41076e-13 	-4.89455e-31 	0 	
0.185 7.05381e-14 	-4.89455e-31 	0 	
0.195 3.52691e-14 	0 	0 	
0.205 3.5269e-14 	0 	0 	
0.215 3.52689e-14 	0 	0 	
0.225 -3.5269e-14 	0 	0 	
0.235 -7.0538e-14 	0 	0 	
0.245 1.05807e-13 	0 	0 	
0.255 -1.41076e-13 	-7.34184e-31 	0 	
0.265 1.41076e-13 	-7.34184e-31 	0 	
0.275 1.05807e-13 	0 	0 	
0.285 -9.19315e-24 	0 	0 	
0.295 -1.41076e-13 	0 	0 	
0.305 1.41076e-13 	0 	0 	
0.315 2.62661e-24 	0 	0 	
0.325 -3.17421e-13 	0 	0 	
0.335 7.05385e-14 	0 	0 	
0.345 2.11614e-13 	0 	0 	
0.355 1.76345e-13 	-4.89455e-31 	0 	
0.365 -7.0538e-14 	0 	0 	
0.375 1.76345e-13 	0 	0 	
0.385 3.93645e-24 	0 	0 	
0.395 -3.93642e-24 	0 	0 	
0.405 3.5269e-14 	0 	0 	
0.415 1.05807e-13 	4.89455e-31 	0 	
0.425 -2.11614e-13 	4.89455e-31 	0 	
0.435 -1.76345e-13 	-3.67092e-31 	0 	
0.445 1.76345e-13 	4.89455e-31 	0 	
0.455 -7.0538e-14 	0 	0 	
0.465 -1.05807e-13 	0 	0 	
0.475 -3.5269e-14 	0 	0 	
0.485 1.05807e-13 	2.44728e-31 	0 	
0.495 52.5202 	0 	0 	
0.505 108.953 	0 	0 	
0.515 3.37023e-10 	0 	0 	
0.525 -1.05807e-13 	0 	0 	
0.535 2.11614e-13 	0 	0 	
0.545 1.5871e-13 	0 	0 	
0.555 -1.32259e-13 	0 	0 	
0.565 5.29035e-14 	0 	0 	
0.575 1.85162e-13 	0 	0 	
0.585 5.29035e-14 	0 	0 	
0.595 1.05807e-13 	0 	0 	
0.605 5.29035e-14 	0 	0 	
0.615 -1.63531e-35 	0 	0 	
0.625 1.58711e-13 	0 	0 	
0.635 -1.96291e-24 	0 	0 	
0.645 -2.64517e-14 	0 	0 	
0.655 -6.87012e-24 	0 	0 	
0.665 -1.05807e-13 	0 	0 	
0.675 -1.96292e-24 	0 	0 	
0.685 5.29035e-14 	0 	0 	
0.695 2.11614e-13 	0 	0 	
0.705 1.95939e-24 	0 	0 	
0.715 -7.93553e-14 	0 	0 	
0.725 5.29035e-14 	0 	0 	
0.735 7.9355e-14 	0 	0 	
0.745 -2.64517e-14 	0 	0 	
0.755 -2.6452e-14 	0 	0 	
0.765 -1.5871e-13 	0 	0 	
0.775 2.6452e-14 	0 	0 	
0.785 1.05807e-13 	0 	0 	
0.795 -5.29035e-14 	0 	0 	
0.805 5.29035e-14 	0 	0 	
0.815 2.64515e-14 	0 	0 	
0.825 7.93555e-14 	0 	0 	
0.835 5.29036e-14 	0 	0 	
0.845 -1.05807e-13 	0 	0 	
0.855 5.29037e-14 	0 	0 	
0.865 1.05807e-13 	0 	0 	
0.875 2.64518e-14 	0 	0 	
0.885 5.29037e-14 	0 	0 	
0.895 -7.93555e-14 	0 	0 	
0.905 -1.85162e-13 	0 	0 	
0.915 5.29037e-14 	0 	0 	
0.925 7.93553e-14 	0 	0 	
0.935 9.77907e-25 	0 	0 	
0.945 1.05807e-13 	0 	0 	
0.955 1.32259e-13 	0 	0 	
0.965 2.64515e-14 	0 	0 	
0.975 -1.85162e-13 	0 	0 	
0.985 6.83323e-24 	0 	0 	
0.995 -5.29035e-14 	0 	0 	
