0.005 5.85004e-25 	0 	0 	
0.015 -2.35127e-14 	0 	0 	
0.025 -2.35127e-14 	0 	0 	
0.035 7.05381e-14 	0 	0 	
0.045 1.17563e-13 	0 	0 	
0.055 2.35127e-14 	0 	0 	
0.065 4.70253e-14 	0 	0 	
0.075 7.05381e-14 	0 	0 	
0.085 -9.40507e-14 	0 	0 	
0.095 4.70255e-14 	0 	0 	
0.105 4.69878e-29 	0 	0 	
0.115 9.40507e-14 	0 	0 	
0.125 -2.35127e-14 	0 	0 	
0.135 -9.40507e-14 	0 	0 	
0.145 2.35127e-14 	0 	0 	
0.155 -2.35127e-14 	0 	0 	
0.165 2.35127e-14 	0 	0 	
0.175 -7.0538e-14 	0 	0 	
0.185 -1.7542e-24 	0 	0 	
0.195 -7.05383e-14 	0 	0 	
0.205 7.05381e-14 	7.505e-30 	0 	
0.215 0 	0 	0 	
0.225 2.35127e-14 	0 	0 	
0.235 -2.3513e-14 	0 	0 	
0.245 -7.05381e-14 	0 	0 	
0.255 -1.75266e-24 	0 	0 	
0.265 -1.17564e-13 	0 	0 	
0.275 -2.35126e-14 	0 	0 	
0.285 -7.05383e-14 	0 	0 	
0.295 -1.88101e-13 	0 	0 	
0.305 -4.70254e-14 	0 	0 	
0.315 2.91557e-12 	0 	0 	
0.325 5.27695e-10 	0 	0 	
0.335 4.91217e-08 	0 	0 	
0.345 2.60642e-06 	0 	0 	
0.355 8.35154e-05 	0 	0 	
0.365 0.00168019 	0 	0 	
0.375 0.0217823 	0 	0 	
0.385 0.185171 	0 	0 	
0.395 1.04862 	0 	0 	
0.405 4.06279 	0 	0 	
0.415 11.3116 	0 	0 	
0.425 24.2103 	0 	0 	
0.435 42.6383 	0 	0 	
0.445 65.2151 	0 	0 	
0.455 89.6279 	0 	0 	
0.465 111.969 	0 	0 	
0.475 126.116 	0 	0 	
0.485 130.011 	0 	0 	
0.495 130.216 	0 	0 	
0.505 130.183 	-9.87053e-31 	0 	
0.515 130.156 	1.11897e-30 	0 	
0.525 130.133 	-1.59681e-30 	0 	
0.535 130.112 	-9.1778e-31 	0 	
0.545 130.089 	-9.97761e-31 	0 	
0.555 130.043 	0 	0 	
0.565 129.759 	0 	0 	
0.575 127.823 	1.86846e-30 	0 	
0.585 118.102 	1.38894e-30 	0 	
0.595 85.0974 	7.52849e-31 	0 	
0.605 30.2704 	0 	0 	
0.615 4.18265 	0 	0 	
0.625 0.338961 	0 	0 	
0.635 0.0193651 	0 	0 	
0.645 0.000765743 	0 	0 	
0.655 1.99865e-05 	0 	0 	
0.665 3.25998e-07 	0 	0 	
0.675 3.10362e-09 	0 	0 	
0.685 1.56418e-11 	0 	0 	
0.695 -1.76345e-14 	0 	0 	
0.705 -2.17711e-24 	0 	0 	
0.715 3.52689e-14 	0 	0 	
0.725 -3.5269e-14 	0 	0 	
0.735 -8.81725e-14 	0 	0 	
0.745 -1.76345e-14 	0 	0 	
0.755 -8.70836e-25 	-2.81437e-30 	0 	
0.765 -3.5269e-14 	0 	0 	
0.775 3.11649e-40 	0 	0 	
0.785 -1.76345e-14 	0 	0 	
0.795 -3.5269e-14 	-2.93674e-30 	0 	
0.805 -4.35407e-25 	-2.81437e-30 	0 	
0.815 3.5269e-14 	0 	0 	
0.825 -8.69274e-25 	0 	0 	
0.835 -3.5269e-14 	0 	0 	
0.845 5.29035e-14 	0 	0 	
0.855 7.0538e-14 	0 	0 	
0.865 8.81724e-14 	0 	0 	
0.875 1.23441e-13 	0 	0 	
0.885 -3.5269e-14 	0 	0 	
0.895 5.29035e-14 	0 	0 	
0.905 1.76345e-14 	0 	0 	
0.915 7.05381e-14 	0 	0 	
0.925 -1.76345e-14 	0 	0 	
0.935 -4.34632e-25 	0 	0 	
0.945 3.5269e-14 	0 	0 	
0.955 7.0538e-14 	0 	0 	
0.965 -1.76345e-14 	0 	0 	
0.975 -1.76345e-14 	0 	0 	
0.985 3.5269e-14 	0 	0 	
0.995 5.29036e-14 	0 	0 	
