0.005 0 	0 	0 	
0.015 2.35127e-14 	0 	0 	
0.025 7.34771e-14 	0 	0 	
0.035 8.52335e-14 	0 	0 	
0.045 4.11472e-14 	0 	0 	
0.055 -2.93907e-15 	0 	0 	
0.065 -3.5269e-14 	0 	0 	
0.075 -7.05381e-14 	0 	0 	
0.085 -6.7599e-14 	0 	0 	
0.095 -5.85004e-25 	0 	0 	
0.105 6.17208e-14 	0 	0 	
0.115 6.46599e-14 	0 	0 	
0.125 3.52691e-14 	0 	0 	
0.135 -2.35125e-14 	0 	0 	
0.145 -9.40506e-14 	-1.14206e-30 	0 	
0.155 -1.20503e-13 	9.78913e-31 	0 	
0.165 -1.05807e-13 	0 	0 	
0.175 -7.93553e-14 	0 	0 	
0.185 -3.52691e-14 	0 	0 	
0.195 2.93908e-14 	0 	0 	
0.205 6.46599e-14 	0 	0 	
0.215 4.70254e-14 	0 	0 	
0.225 3.82081e-14 	0 	0 	
0.235 4.70254e-14 	2.61042e-30 	0 	
0.245 2.35127e-14 	6.52609e-31 	0 	
0.255 -2.9391e-15 	0 	0 	
0.265 -2.50001e-20 	0 	0 	
0.275 2.93908e-15 	0 	0 	
0.285 0 	0 	0 	
0.295 0 	0 	0 	
0.305 0 	0 	0 	
0.315 1.46954e-14 	0 	0 	
0.325 3.23299e-14 	0 	0 	
0.335 2.64518e-14 	0 	0 	
0.345 8.81725e-15 	0 	0 	
0.355 -1.76345e-14 	0 	0 	
0.365 -3.5269e-14 	0 	0 	
0.375 -3.233e-14 	0 	0 	
0.385 -3.23299e-14 	0 	0 	
0.395 -3.23299e-14 	0 	0 	
0.405 -1.17564e-14 	0 	0 	
0.415 2.64517e-14 	0 	0 	
0.425 3.82081e-14 	0 	0 	
0.435 1.46954e-14 	0 	0 	
0.445 0.314592 	0 	0 	
0.455 6.18701 	0 	0 	
0.465 26.7816 	0 	0 	
0.475 61.9604 	0 	0 	
0.485 98.0829 	0 	0 	
0.495 122.263 	0 	0 	
0.505 132.404 	0 	0 	
0.515 132.659 	0 	0 	
0.525 124.908 	0 	0 	
0.535 99.7697 	0 	0 	
0.545 54.6677 	0 	0 	
0.555 15.4993 	0 	0 	
0.565 1.17954 	0 	0 	
0.575 -8.81727e-15 	-2.44729e-31 	0 	
0.585 6.61295e-15 	0 	0 	
0.595 6.61295e-15 	0 	0 	
0.605 -1.76345e-14 	0 	0 	
0.615 -5.29036e-14 	0 	0 	
0.625 -5.73122e-14 	0 	0 	
0.635 -2.20432e-14 	0 	0 	
0.645 1.54302e-14 	0 	0 	
0.655 1.54302e-14 	0 	0 	
0.665 -3.08604e-14 	0 	0 	
0.675 -5.51079e-14 	0 	0 	
0.685 -1.54302e-14 	0 	0 	
0.695 4.1882e-14 	0 	0 	
0.705 6.17208e-14 	0 	0 	
0.715 4.84949e-14 	0 	0 	
0.725 3.74734e-14 	0 	0 	
0.735 2.42475e-14 	0 	0 	
0.745 6.61295e-15 	0 	0 	
0.755 0 	0 	0 	
0.765 0 	0 	0 	
0.775 -4.40862e-15 	0 	0 	
0.785 -2.20431e-14 	0 	0 	
0.795 -2.64518e-14 	0 	0 	
0.805 2.2043e-15 	0 	0 	
0.815 2.42475e-14 	-2.44729e-30 	0 	
0.825 1.98389e-14 	0 	0 	
0.835 6.61295e-15 	0 	0 	
0.845 0 	0 	0 	
0.855 -2.20431e-15 	0 	0 	
0.865 -1.10216e-14 	0 	0 	
0.875 -8.81727e-15 	0 	0 	
0.885 8.81726e-15 	0 	0 	
0.895 1.10216e-14 	0 	0 	
0.905 -4.40863e-15 	0 	0 	
0.915 -3.08604e-14 	0 	0 	
0.925 -3.96777e-14 	0 	0 	
0.935 4.40863e-15 	0 	0 	
0.945 4.1882e-14 	0 	0 	
0.955 2.64518e-14 	0 	0 	
0.965 4.40863e-15 	0 	0 	
0.975 0 	0 	0 	
0.985 0 	0 	0 	
0.995 0 	0 	0 	
