0.005 3.29471e-14 	0 	0 	
0.015 -3.98832e-14 	0 	0 	
0.025 -6.06922e-14 	0 	0 	
0.035 2.25428e-14 	0 	0 	
0.045 -5.02876e-14 	0 	0 	
0.055 -2.25427e-14 	0 	0 	
0.065 -5.72241e-14 	0 	0 	
0.075 -3.46812e-14 	0 	0 	
0.085 -2.77449e-14 	1.73268e-29 	0 	
0.095 9.88413e-14 	0 	0 	
0.105 -1.73407e-15 	0 	0 	
0.115 8.32349e-14 	-8.66338e-30 	0 	
0.125 1.30054e-13 	8.90403e-30 	0 	
0.135 -3.29473e-14 	0 	0 	
0.145 1.07512e-13 	0 	0 	
0.155 1.95949e-13 	0 	0 	
0.165 5.3756e-14 	0 	0 	
0.175 1.56066e-13 	0 	0 	
0.185 1.90749e-14 	0 	0 	
0.195 3.81494e-14 	0 	0 	
0.205 3.46812e-15 	0 	0 	
0.215 1.17916e-13 	0 	0 	
0.225 2.69527e-29 	0 	0 	
0.235 -4.50855e-14 	0 	0 	
0.245 -1.90747e-14 	0 	0 	
0.255 -3.12131e-14 	0 	0 	
0.265 -2.2543e-14 	0 	0 	
0.275 -6.93623e-14 	0 	0 	
0.285 -1.90746e-14 	0 	0 	
0.295 -5.72241e-14 	0 	0 	
0.305 5.14669e-12 	0 	0 	
0.315 4.41231e-09 	0 	0 	
0.325 8.90326e-07 	0 	0 	
0.335 6.58747e-05 	0 	0 	
0.345 0.00219427 	0 	0 	
0.355 0.0370673 	0 	0 	
0.365 0.343223 	0 	0 	
0.375 1.86087 	0 	0 	
0.385 6.40786 	0 	0 	
0.395 15.5278 	0 	0 	
0.405 29.3349 	0 	0 	
0.415 46.8178 	0 	0 	
0.425 66.6409 	0 	0 	
0.435 87.3842 	0 	0 	
0.445 107.07 	0 	0 	
0.455 122.197 	0 	0 	
0.465 129.087 	0 	0 	
0.475 130.177 	0 	0 	
0.485 130.182 	0 	0 	
0.495 130.156 	0 	0 	
0.505 130.134 	0 	0 	
0.515 130.108 	0 	0 	
0.525 130.068 	0 	0 	
0.535 129.994 	0 	0 	
0.545 129.88 	0 	0 	
0.555 -1.40628e+10 	0 	0 	
0.565 2.28736e+11 	0 	0 	
0.575 -6.40147e+14 	0 	0 	
0.585 -4.8277e+18 	0 	0 	
0.595 -2.29927e+21 	0 	0 	
0.605 2.31685e+24 	0 	0 	
0.615 2.30962e+21 	0 	0 	
0.625 1.48195e+12 	0 	0 	
0.635 7.00298e+08 	0 	0 	
0.645 1706.16 	0 	0 	
0.655 0.0789831 	0 	0 	
0.665 0.00133929 	0 	0 	
0.675 1.21071e-05 	0 	0 	
0.685 4.41412e-08 	0 	0 	
0.695 4.11454e-11 	0 	0 	
0.705 5.2022e-14 	0 	0 	
0.715 -8.45358e-14 	0 	0 	
0.725 9.1038e-14 	0 	0 	
0.735 1.09246e-13 	0 	0 	
0.745 2.20362e-24 	0 	0 	
0.755 3.51146e-14 	0 	0 	
0.765 -6.50272e-14 	0 	0 	
0.775 -1.30055e-14 	0 	0 	
0.785 5.59236e-14 	0 	0 	
0.795 -3.90165e-15 	0 	0 	
0.805 2.47104e-14 	0 	0 	
0.815 -4.81203e-14 	0 	0 	
0.825 1.17049e-13 	0 	0 	
0.835 5.33226e-14 	0 	0 	
0.845 -2.60109e-15 	0 	0 	
0.855 8.06338e-14 	0 	0 	
0.865 9.10381e-15 	0 	0 	
0.875 5.20215e-14 	0 	0 	
0.885 9.88414e-14 	0 	0 	
0.895 -6.50273e-15 	0 	0 	
0.905 -1.01442e-13 	0 	0 	
0.915 5.46232e-14 	0 	0 	
0.925 3.90162e-14 	0 	0 	
0.935 4.2918e-14 	0 	0 	
0.945 -1.17047e-14 	0 	0 	
0.955 -4.03166e-14 	0 	0 	
0.965 2.34101e-14 	0 	0 	
0.975 9.10382e-14 	0 	0 	
0.985 2.08087e-14 	0 	0 	
0.995 7.15302e-14 	0 	0 	
