0.005 2.35127e-14 	0 	0 	
0.015 1.16987e-24 	0 	0 	
0.025 -4.70253e-14 	0 	0 	
0.035 -5.8491e-25 	0 	0 	
0.045 -4.70254e-14 	0 	0 	
0.055 1.16974e-24 	0 	0 	
0.065 1.17564e-13 	0 	0 	
0.075 2.35127e-14 	0 	0 	
0.085 -7.05383e-14 	0 	0 	
0.095 -2.35127e-14 	0 	0 	
0.105 -5.84998e-25 	0 	0 	
0.115 2.35127e-14 	0 	0 	
0.125 -7.05381e-14 	0 	0 	
0.135 -2.35126e-14 	0 	0 	
0.145 -3.13252e-29 	0 	0 	
0.155 -9.40508e-14 	0 	0 	
0.165 4.70253e-14 	0 	0 	
0.175 -4.70254e-14 	0 	0 	
0.185 -4.70253e-14 	0 	0 	
0.195 -1.16949e-24 	0 	0 	
0.205 -7.05381e-14 	1.30522e-30 	0 	
0.215 4.70253e-14 	0 	0 	
0.225 2.35127e-14 	0 	0 	
0.235 2.35127e-14 	0 	0 	
0.245 -9.40508e-14 	0 	0 	
0.255 4.70256e-14 	0 	0 	
0.265 -2.35127e-14 	0 	0 	
0.275 7.05383e-14 	0 	0 	
0.285 -9.40507e-14 	0 	0 	
0.295 -2.3513e-14 	0 	0 	
0.305 2.35127e-14 	0 	0 	
0.315 2.3513e-14 	0 	0 	
0.325 -2.35126e-14 	0 	0 	
0.335 -1.41076e-13 	0 	0 	
0.345 7.05381e-14 	0 	0 	
0.355 7.05383e-14 	0 	0 	
0.365 -1.41076e-13 	0 	0 	
0.375 4.70254e-14 	0 	0 	
0.385 9.40507e-14 	0 	0 	
0.395 2.35127e-14 	0 	0 	
0.405 -1.41076e-13 	0 	0 	
0.415 4.70254e-14 	0 	0 	
0.425 1.41076e-13 	0 	0 	
0.435 -5.82643e-25 	0 	0 	
0.445 -5.82639e-25 	0 	0 	
0.455 -7.0538e-14 	0 	0 	
0.465 0.0158192 	0 	0 	
0.475 1.87751 	0 	0 	
0.485 24.089 	0 	0 	
0.495 94.0478 	0 	0 	
0.505 128.483 	-2.80804e-31 	0 	
0.515 91.3055 	5.5115e-31 	0 	
0.525 11.5171 	-1.16508e-30 	0 	
0.535 0.0700269 	-4.89276e-31 	0 	
0.545 -5.29035e-14 	-4.89456e-31 	0 	
0.555 -8.81725e-14 	0 	0 	
0.565 3.5269e-14 	0 	0 	
0.575 -1.76344e-14 	0 	0 	
0.585 -4.36195e-25 	0 	0 	
0.595 -7.0538e-14 	0 	0 	
0.605 5.29035e-14 	0 	0 	
0.615 -3.5269e-14 	0 	0 	
0.625 1.76345e-14 	0 	0 	
0.635 -8.81725e-14 	0 	0 	
0.645 -5.29035e-14 	0 	0 	
0.655 8.81725e-14 	0 	0 	
0.665 5.29035e-14 	0 	0 	
0.675 -5.29035e-14 	0 	0 	
0.685 0 	0 	0 	
0.695 -3.5269e-14 	0 	0 	
0.705 1.76345e-14 	0 	0 	
0.715 4.35418e-25 	0 	0 	
0.725 -5.29035e-14 	0 	0 	
0.735 4.35442e-25 	0 	0 	
0.745 5.29035e-14 	0 	0 	
0.755 1.76345e-14 	-4.89456e-31 	0 	
0.765 1.30626e-24 	0 	0 	
0.775 3.5269e-14 	0 	0 	
0.785 8.81725e-14 	0 	0 	
0.795 8.70846e-25 	-4.89456e-31 	0 	
0.805 -5.29034e-14 	-4.89456e-31 	0 	
0.815 4.34661e-25 	0 	0 	
0.825 -5.29035e-14 	0 	0 	
0.835 4.34643e-25 	0 	0 	
0.845 1.73859e-24 	0 	0 	
0.855 5.29034e-14 	0 	0 	
0.865 5.29035e-14 	0 	0 	
0.875 1.76345e-14 	0 	0 	
0.885 -8.81725e-14 	0 	0 	
0.895 3.52689e-14 	0 	0 	
0.905 5.29035e-14 	0 	0 	
0.915 3.5269e-14 	0 	0 	
0.925 8.81725e-14 	0 	0 	
0.935 5.29035e-14 	0 	0 	
0.945 -3.5269e-14 	0 	0 	
0.955 3.5269e-14 	0 	0 	
0.965 1.56626e-29 	0 	0 	
0.975 -8.81725e-14 	0 	0 	
0.985 -7.0538e-14 	0 	0 	
0.995 -4.33864e-25 	0 	0 	
