0.005 3.40934e-14 	0 	0 	
0.015 0 	0 	0 	
0.025 1.70466e-14 	0 	0 	
0.035 3.75026e-14 	0 	0 	
0.045 -1.29555e-13 	0 	0 	
0.055 8.52333e-14 	0 	0 	
0.065 1.70467e-13 	0 	0 	
0.075 -1.70469e-14 	0 	0 	
0.085 -5.79589e-14 	0 	0 	
0.095 9.88711e-14 	0 	0 	
0.105 1.36374e-13 	0 	0 	
0.115 -2.0456e-14 	0 	0 	
0.125 -1.70465e-14 	0 	0 	
0.135 -1.63648e-13 	0 	0 	
0.145 3.06842e-14 	0 	0 	
0.155 3.75029e-14 	0 	0 	
0.165 -1.02279e-14 	0 	0 	
0.175 -8.52336e-14 	0 	0 	
0.185 4.09124e-14 	-3.312e-30 	0 	
0.195 1.67058e-13 	0 	0 	
0.205 -6.81866e-15 	0 	0 	
0.215 -3.75025e-14 	0 	0 	
0.225 -6.81868e-14 	0 	0 	
0.235 1.22736e-13 	0 	0 	
0.245 -5.79586e-14 	0 	0 	
0.255 1.32964e-13 	-3.312e-30 	0 	
0.265 1.5342e-13 	-1.77428e-30 	0 	
0.275 -6.81865e-14 	0 	0 	
0.285 7.50054e-14 	0 	0 	
0.295 -1.39783e-13 	0 	0 	
0.305 -3.40936e-14 	0 	0 	
0.315 -1.0228e-13 	0 	0 	
0.325 1.70466e-14 	0 	0 	
0.335 6.47775e-14 	0 	0 	
0.345 1.0228e-14 	0 	0 	
0.355 1.70468e-14 	-1.41942e-30 	0 	
0.365 1.70465e-14 	0 	0 	
0.375 -1.19327e-13 	0 	0 	
0.385 -1.15918e-13 	0 	0 	
0.395 1.43192e-13 	0 	0 	
0.405 -1.50011e-13 	0 	0 	
0.415 -1.12509e-13 	0 	0 	
0.425 0.000459007 	0 	0 	
0.435 0.0753315 	0 	0 	
0.445 1.78539 	0 	0 	
0.455 12.3821 	0 	0 	
0.465 39.3865 	0 	0 	
0.475 79.8389 	0 	0 	
0.485 118.426 	0 	0 	
0.495 130.093 	8.94109e-31 	0 	
0.505 130.183 	0 	0 	
0.515 130.134 	0 	0 	
0.525 130.048 	0 	0 	
0.535 128.318 	0 	0 	
0.545 112.228 	0 	0 	
0.555 37.1658 	0 	0 	
0.565 1.05634 	0 	0 	
0.575 0.0036421 	0 	0 	
0.585 -2.04561e-14 	0 	0 	
0.595 3.32409e-14 	0 	0 	
0.605 7.41535e-14 	0 	0 	
0.615 -5.114e-14 	0 	0 	
0.625 -1.2785e-14 	0 	0 	
0.635 9.7166e-14 	0 	0 	
0.645 1.5342e-14 	0 	0 	
0.655 -2.0456e-14 	0 	0 	
0.665 1.30407e-13 	0 	0 	
0.675 -1.27851e-14 	0 	0 	
0.685 -5.62539e-14 	0 	0 	
0.695 3.52017e-29 	0 	0 	
0.705 4.0912e-14 	0 	0 	
0.715 -4.85828e-14 	0 	0 	
0.725 5.11402e-14 	0 	0 	
0.735 -5.114e-14 	0 	0 	
0.745 -7.671e-15 	0 	0 	
0.755 1.17622e-13 	0 	0 	
0.765 -7.671e-15 	0 	0 	
0.775 -7.671e-14 	0 	0 	
0.785 -4.3469e-14 	0 	0 	
0.795 -2.55701e-14 	0 	0 	
0.805 5.114e-14 	0 	0 	
0.815 -1.0228e-13 	0 	0 	
0.825 -1.2785e-14 	0 	0 	
0.835 -5.11402e-14 	0 	0 	
0.845 4.09119e-14 	0 	0 	
0.855 4.6026e-14 	0 	0 	
0.865 1.20179e-13 	0 	0 	
0.875 -1.0228e-13 	0 	0 	
0.885 -5.114e-15 	0 	0 	
0.895 -4.09121e-14 	0 	0 	
0.905 -1.32219e-25 	0 	0 	
0.915 -6.3925e-14 	0 	0 	
0.925 -5.114e-14 	0 	0 	
0.935 7.92671e-14 	0 	0 	
0.945 -1.78989e-14 	0 	0 	
0.955 2.557e-15 	0 	0 	
0.965 4.3469e-14 	0 	0 	
0.975 -2.50006e-19 	0 	0 	
0.985 -4.8583e-14 	0 	0 	
0.995 6.13685e-14 	0 	0 	
