0.005 5.87817e-15 	0 	0 	
0.015 3.5269e-14 	0 	0 	
0.025 8.22943e-14 	0 	0 	
0.035 9.11115e-14 	0 	0 	
0.045 4.40862e-14 	0 	0 	
0.055 -2.93907e-15 	0 	0 	
0.065 -3.5269e-14 	0 	0 	
0.075 -7.05381e-14 	0 	0 	
0.085 -6.46599e-14 	0 	0 	
0.095 2.93905e-15 	0 	0 	
0.105 5.58426e-14 	0 	0 	
0.115 5.58427e-14 	0 	0 	
0.125 3.233e-14 	0 	0 	
0.135 -1.76345e-14 	0 	0 	
0.145 -9.40507e-14 	-1.79468e-30 	0 	
0.155 -1.35198e-13 	0 	0 	
0.165 -1.14624e-13 	0 	0 	
0.175 -8.52335e-14 	0 	0 	
0.185 -4.70254e-14 	0 	0 	
0.195 2.05736e-14 	0 	0 	
0.205 6.17208e-14 	0 	0 	
0.215 4.99645e-14 	0 	0 	
0.225 4.70253e-14 	0 	0 	
0.235 5.29035e-14 	3.58935e-30 	0 	
0.245 2.93908e-14 	0 	0 	
0.255 5.87815e-15 	0 	0 	
0.265 -2.93907e-15 	0 	0 	
0.275 -2.93908e-15 	0 	0 	
0.285 0 	0 	0 	
0.295 0 	0 	0 	
0.305 0 	0 	0 	
0.315 -2.93907e-15 	0 	0 	
0.325 2.9391e-15 	0 	0 	
0.335 8.81725e-15 	0 	0 	
0.345 -2.9391e-15 	0 	0 	
0.355 -5.87818e-15 	0 	0 	
0.365 0 	0 	0 	
0.375 -8.81725e-15 	0 	0 	
0.385 -2.64517e-14 	0 	0 	
0.395 -3.5269e-14 	0 	0 	
0.405 -1.76345e-14 	0 	0 	
0.415 2.64518e-14 	0 	0 	
0.425 4.40863e-14 	0 	0 	
0.435 1.76345e-14 	0 	0 	
0.445 1.16139 	0 	0 	
0.455 10.267 	0 	0 	
0.465 34.9196 	0 	0 	
0.475 71.3847 	0 	0 	
0.485 105.328 	0 	0 	
0.495 125.38 	0 	0 	
0.505 131.611 	0 	0 	
0.515 131.829 	0 	0 	
0.525 129.567 	0 	0 	
0.535 114.214 	0 	0 	
0.545 75.7357 	0 	0 	
0.555 30.315 	0 	0 	
0.565 5.06678 	0 	0 	
0.575 -4.40862e-15 	0 	0 	
0.585 8.81727e-15 	0 	0 	
0.595 4.40864e-15 	0 	0 	
0.605 -2.20432e-14 	0 	0 	
0.615 -5.06993e-14 	0 	0 	
0.625 -4.8495e-14 	0 	0 	
0.635 -2.64518e-14 	0 	0 	
0.645 -4.40863e-15 	0 	0 	
0.655 4.40863e-15 	0 	0 	
0.665 -2.86561e-14 	0 	0 	
0.675 -5.06992e-14 	0 	0 	
0.685 -4.40863e-15 	0 	0 	
0.695 4.84949e-14 	0 	0 	
0.705 5.06992e-14 	0 	0 	
0.715 3.74733e-14 	0 	0 	
0.725 3.5269e-14 	0 	0 	
0.735 3.30647e-14 	0 	0 	
0.745 2.20432e-14 	0 	0 	
0.755 6.61295e-15 	0 	0 	
0.765 0 	0 	0 	
0.775 -4.40862e-15 	0 	0 	
0.785 -2.20431e-14 	0 	0 	
0.795 -2.64518e-14 	0 	0 	
0.805 2.2043e-15 	0 	0 	
0.815 2.42475e-14 	-2.692e-30 	0 	
0.825 1.98389e-14 	0 	0 	
0.835 6.61295e-15 	0 	0 	
0.845 0 	0 	0 	
0.855 0 	0 	0 	
0.865 -8.81725e-15 	0 	0 	
0.875 -1.10216e-14 	0 	0 	
0.885 6.61296e-15 	0 	0 	
0.895 1.10216e-14 	0 	0 	
0.905 -4.40863e-15 	0 	0 	
0.915 -3.30647e-14 	0 	0 	
0.925 -4.40863e-14 	0 	0 	
0.935 -4.40862e-15 	0 	0 	
0.945 3.08604e-14 	0 	0 	
0.955 3.08604e-14 	0 	0 	
0.965 1.98389e-14 	0 	0 	
0.975 6.61295e-15 	0 	0 	
0.985 0 	0 	0 	
0.995 0 	0 	0 	
