0.005 -5.91491e-14 	0 	0 	
0.015 5.49242e-14 	0 	0 	
0.025 -3.80244e-14 	0 	0 	
0.035 -7.18239e-14 	0 	0 	
0.045 -8.44987e-15 	0 	0 	
0.055 -2.95746e-14 	0 	0 	
0.065 -4.22494e-14 	-7.97407e-30 	0 	
0.075 1.77447e-13 	0 	0 	
0.085 3.37995e-14 	0 	0 	
0.095 -9.29486e-14 	0 	0 	
0.105 2.95746e-14 	0 	0 	
0.115 -1.22523e-13 	0 	0 	
0.125 -2.95746e-14 	0 	0 	
0.135 9.71736e-14 	0 	0 	
0.145 -6.6111e-25 	0 	0 	
0.155 8.02738e-14 	0 	0 	
0.165 7.60489e-14 	0 	0 	
0.175 4.64743e-14 	0 	0 	
0.185 9.29486e-14 	0 	0 	
0.195 2.11247e-14 	0 	0 	
0.205 -4.22494e-15 	0 	0 	
0.215 1.18298e-13 	0 	0 	
0.225 -1.09848e-13 	0 	0 	
0.235 -4.22494e-15 	0 	0 	
0.245 9.71736e-14 	0 	0 	
0.255 -1.14073e-13 	0 	0 	
0.265 -2.11247e-13 	0 	0 	
0.275 1.14073e-13 	0 	0 	
0.285 -3.37995e-14 	0 	0 	
0.295 1.55309e-11 	0 	0 	
0.305 5.85826e-09 	0 	0 	
0.315 7.41373e-07 	0 	0 	
0.325 4.32947e-05 	0 	0 	
0.335 0.00131215 	0 	0 	
0.345 0.021335 	0 	0 	
0.355 0.199885 	0 	0 	
0.365 1.1517 	0 	0 	
0.375 4.29528 	-2.37499e-31 	0 	
0.385 11.2013 	0 	0 	
0.395 22.4556 	0 	0 	
0.405 37.5041 	0 	0 	
0.415 55.2569 	0 	0 	
0.425 74.5516 	0 	0 	
0.435 94.0994 	0 	0 	
0.445 111.891 	3.31941e-31 	0 	
0.455 124.503 	1.3875e-30 	0 	
0.465 129.519 	0 	0 	
0.475 130.189 	0 	0 	
0.485 130.181 	3.53708e-31 	0 	
0.495 130.158 	0 	0 	
0.505 130.141 	0 	0 	
0.515 130.128 	1.77093e-31 	0 	
0.525 130.116 	0 	0 	
0.535 130.106 	0 	0 	
0.545 130.096 	0 	0 	
0.555 130.086 	-4.72791e-30 	0 	
0.565 130.074 	0 	0 	
0.575 130.059 	0 	0 	
0.585 130.039 	0 	0 	
0.595 130.004 	0 	0 	
0.605 129.871 	0 	0 	
0.615 126.741 	-2.68037e-30 	0 	
0.625 115.241 	0 	0 	
0.635 29.0789 	0 	0 	
0.645 34.1083 	0 	0 	
0.655 2.56288 	0 	0 	
0.665 0.0842887 	0 	0 	
0.675 0.00180225 	0 	0 	
0.685 2.37035e-05 	0 	0 	
0.695 1.62225e-07 	0 	0 	
0.705 4.1485e-10 	0 	0 	
0.715 2.37653e-13 	0 	0 	
0.725 7.6049e-14 	6.68414e-30 	0 	
0.735 1.04567e-13 	0 	0 	
0.745 -2.85181e-14 	0 	0 	
0.755 -4.11929e-14 	0 	0 	
0.765 -6.65428e-14 	-1.82934e-29 	0 	
0.775 -1.26749e-14 	0 	0 	
0.785 -4.43619e-14 	0 	0 	
0.795 5.70368e-14 	0 	0 	
0.805 6.65429e-14 	0 	0 	
0.815 -2.85184e-14 	1.02021e-29 	0 	
0.825 -4.11928e-14 	4.57335e-30 	0 	
0.835 -5.06992e-14 	0 	0 	
0.845 -9.50612e-14 	0 	0 	
0.855 -1.01398e-13 	0 	0 	
0.865 1.25007e-19 	0 	0 	
0.875 -9.50611e-14 	0 	0 	
0.885 1.23579e-13 	0 	0 	
0.895 -3.1687e-14 	0 	0 	
0.905 -6.65429e-14 	0 	0 	
0.915 -7.60489e-14 	0 	0 	
0.925 6.02054e-14 	0 	0 	
0.935 9.50608e-14 	0 	0 	
0.945 2.2181e-14 	0 	0 	
0.955 -1.36254e-13 	0 	0 	
0.965 1.04567e-13 	0 	0 	
0.975 5.38681e-14 	0 	0 	
0.985 -1.58434e-14 	0 	0 	
0.995 5.0699e-14 	0 	0 	
