0.005 4.90141e-14 	0 	0 	
0.015 8.22944e-14 	0 	0 	
0.025 1.05807e-13 	0 	0 	
0.035 1.35198e-13 	0 	0 	
0.045 1.49894e-13 	0 	0 	
0.055 1.20503e-13 	0 	0 	
0.065 5.58427e-14 	0 	0 	
0.075 -2.05736e-14 	0 	0 	
0.085 -6.7599e-14 	0 	0 	
0.095 -9.11115e-14 	0 	0 	
0.105 -1.29319e-13 	0 	0 	
0.115 -1.41076e-13 	0 	0 	
0.125 -1.52832e-13 	0 	0 	
0.135 -2.20431e-13 	0 	0 	
0.145 -2.70396e-13 	-1.79468e-30 	0 	
0.155 -2.55701e-13 	1.63152e-30 	0 	
0.165 -2.14554e-13 	0 	0 	
0.175 -1.67528e-13 	0 	0 	
0.185 -9.699e-14 	0 	0 	
0.195 -5.87815e-15 	0 	0 	
0.205 4.99645e-14 	0 	0 	
0.215 5.58427e-14 	0 	0 	
0.225 8.22944e-14 	1.63152e-31 	0 	
0.235 1.11685e-13 	8.81022e-30 	0 	
0.245 9.11116e-14 	6.52609e-31 	0 	
0.255 6.7599e-14 	0 	0 	
0.265 6.17208e-14 	0 	0 	
0.275 5.29036e-14 	0 	0 	
0.285 5.29036e-14 	0 	0 	
0.295 6.46599e-14 	0 	0 	
0.305 8.22943e-14 	0 	0 	
0.315 1.05807e-13 	0 	0 	
0.325 1.05807e-13 	0 	0 	
0.335 6.17207e-14 	0 	0 	
0.345 -1.46954e-14 	0 	0 	
0.355 -9.11116e-14 	0 	0 	
0.365 -1.35198e-13 	0 	0 	
0.375 0.0381327 	0 	0 	
0.385 2.07695 	0 	0 	
0.395 10.2457 	0 	0 	
0.405 25.6586 	0 	0 	
0.415 45.2664 	0 	0 	
0.425 66.1877 	0 	0 	
0.435 86.6577 	0 	0 	
0.445 104.716 	0 	0 	
0.455 118.305 	0 	0 	
0.465 126.264 	0 	0 	
0.475 129.242 	0 	0 	
0.485 129.642 	0 	0 	
0.495 129.73 	0 	0 	
0.505 130.183 	0 	0 	
0.515 130.673 	0 	0 	
0.525 130.814 	0 	0 	
0.535 130.534 	0 	0 	
0.545 129.971 	0 	0 	
0.555 129.453 	0 	0 	
0.565 129.282 	0 	0 	
0.575 129.506 	-2.71314e-30 	0 	
0.585 129.903 	-1.52248e-30 	0 	
0.595 129.83 	0 	0 	
0.605 127.001 	0 	0 	
0.615 112.588 	0 	0 	
0.625 76.4213 	0 	0 	
0.635 31.7021 	0 	0 	
0.645 5.65075 	0 	0 	
0.655 -2.42475e-14 	0 	0 	
0.665 -1.54302e-14 	0 	0 	
0.675 -1.10216e-14 	0 	0 	
0.685 2.64518e-14 	0 	0 	
0.695 6.83338e-14 	0 	0 	
0.705 5.73122e-14 	0 	0 	
0.715 2.64518e-14 	0 	0 	
0.725 4.40862e-14 	0 	0 	
0.735 8.15596e-14 	0 	0 	
0.745 7.49467e-14 	0 	0 	
0.755 4.40863e-14 	0 	0 	
0.765 3.08604e-14 	0 	0 	
0.775 3.30647e-14 	0 	0 	
0.785 2.20431e-14 	0 	0 	
0.795 6.61295e-15 	0 	0 	
0.805 2.64518e-14 	0 	0 	
0.815 5.06992e-14 	-7.34184e-30 	0 	
0.825 3.5269e-14 	0 	0 	
0.835 2.1732e-25 	0 	0 	
0.845 -2.64517e-14 	0 	0 	
0.855 -3.96776e-14 	0 	0 	
0.865 -4.84949e-14 	0 	0 	
0.875 -6.17208e-14 	0 	0 	
0.885 -7.27424e-14 	0 	0 	
0.895 -7.05381e-14 	0 	0 	
0.905 -5.06993e-14 	0 	0 	
0.915 -3.30647e-14 	0 	0 	
0.925 -3.5269e-14 	0 	0 	
0.935 -1.76345e-14 	0 	0 	
0.945 2.64518e-14 	0 	0 	
0.955 6.17208e-14 	0 	0 	
0.965 9.03769e-14 	0 	0 	
0.975 1.08011e-13 	0 	0 	
0.985 9.69899e-14 	0 	0 	
0.995 6.50767e-14 	0 	0 	
