0.005 1.68997e-14 	0 	0 	
0.015 1.68998e-14 	0 	0 	
0.025 -1.05623e-13 	0 	0 	
0.035 -1.73222e-13 	0 	0 	
0.045 -4.22494e-15 	0 	0 	
0.055 2.11247e-14 	0 	0 	
0.065 -1.26748e-14 	-9.61577e-30 	0 	
0.075 -1.17562e-25 	0 	0 	
0.085 -1.09848e-13 	0 	0 	
0.095 5.87859e-26 	0 	0 	
0.105 1.68998e-14 	0 	0 	
0.115 1.01399e-13 	0 	0 	
0.125 4.22494e-14 	0 	0 	
0.135 2.53496e-14 	0 	0 	
0.145 -7.60489e-14 	0 	0 	
0.155 8.44987e-15 	0 	0 	
0.165 4.22494e-14 	0 	0 	
0.175 6.33741e-14 	0 	0 	
0.185 5.06993e-14 	0 	0 	
0.195 4.22494e-14 	0 	0 	
0.205 6.7599e-14 	0 	0 	
0.215 8.02738e-14 	0 	0 	
0.225 -3.80244e-14 	0 	0 	
0.235 -6.33741e-14 	0 	0 	
0.245 -1.05623e-13 	0 	0 	
0.255 4.77417e-13 	0 	0 	
0.265 1.51988e-10 	0 	0 	
0.275 1.86216e-08 	0 	0 	
0.285 1.19779e-06 	0 	0 	
0.295 4.42243e-05 	0 	0 	
0.305 0.000945818 	0 	0 	
0.315 0.0124183 	0 	0 	
0.325 0.105984 	0 	0 	
0.335 0.600101 	0 	0 	
0.345 2.31108 	0 	0 	
0.355 6.41386 	0 	0 	
0.365 13.7547 	0 	0 	
0.375 24.3466 	-3.02822e-30 	0 	
0.385 37.5898 	0 	0 	
0.395 52.7247 	0 	0 	
0.405 69.0273 	0 	0 	
0.415 85.7677 	0 	0 	
0.425 101.999 	0 	0 	
0.435 116.136 	0 	0 	
0.445 125.736 	-8.69698e-31 	0 	
0.455 129.565 	5.29128e-31 	0 	
0.465 130.176 	0 	0 	
0.475 130.181 	3.53573e-31 	0 	
0.485 130.16 	3.53608e-31 	0 	
0.495 130.145 	0 	0 	
0.505 130.132 	0 	0 	
0.515 130.122 	1.76965e-31 	0 	
0.525 130.113 	0 	0 	
0.535 130.105 	0 	0 	
0.545 130.095 	0 	0 	
0.555 130.085 	-4.72546e-30 	0 	
0.565 130.07 	0 	0 	
0.575 130.047 	0 	0 	
0.585 130.015 	0 	0 	
0.595 129.967 	0 	0 	
0.605 129.899 	0 	0 	
0.615 129.836 	-2.90981e-30 	0 	
0.625 128.928 	0 	0 	
0.635 -575955 	0 	0 	
0.645 7.49617e+06 	0 	0 	
0.655 -5.68918e+06 	0 	0 	
0.665 2032.95 	-3.40485e-29 	0 	
0.675 319.179 	-1.06156e-30 	0 	
0.685 2.35568 	0 	0 	
0.695 0.0885535 	0 	0 	
0.705 0.00250543 	0 	0 	
0.715 4.81713e-05 	0 	0 	
0.725 6.01697e-07 	8.44311e-30 	0 	
0.735 4.31396e-09 	0 	0 	
0.745 1.38758e-11 	0 	0 	
0.755 -5.38679e-14 	0 	0 	
0.765 4.43616e-14 	-2.18114e-29 	0 	
0.775 -2.85184e-14 	0 	0 	
0.785 -8.87241e-14 	0 	0 	
0.795 -9.18923e-14 	0 	0 	
0.805 5.50921e-26 	0 	0 	
0.815 -1.58435e-14 	1.23129e-29 	0 	
0.825 -5.70364e-14 	5.62874e-30 	0 	
0.835 -6.97115e-14 	0 	0 	
0.845 -6.33738e-15 	0 	0 	
0.855 -2.535e-14 	0 	0 	
0.865 -6.02052e-14 	0 	0 	
0.875 -3.80247e-14 	0 	0 	
0.885 -9.82297e-14 	0 	0 	
0.895 -2.21808e-14 	0 	0 	
0.905 9.18924e-14 	0 	0 	
0.915 4.43616e-14 	0 	0 	
0.925 3.48555e-14 	0 	0 	
0.935 5.38675e-14 	0 	0 	
0.945 5.38676e-14 	0 	0 	
0.955 3.16874e-14 	0 	0 	
0.965 1.36254e-13 	0 	0 	
0.975 -1.20411e-13 	0 	0 	
0.985 -3.80241e-14 	0 	0 	
0.995 1.58434e-14 	0 	0 	
