0.005 7.0538e-14 	0 	0 	
0.015 9.40507e-14 	0 	0 	
0.025 -2.35126e-14 	0 	0 	
0.035 4.70254e-14 	0 	0 	
0.045 4.70254e-14 	0 	0 	
0.055 -7.05381e-14 	0 	0 	
0.065 4.70253e-14 	0 	0 	
0.075 -2.3513e-14 	0 	0 	
0.085 2.92501e-24 	0 	0 	
0.095 4.70254e-14 	0 	0 	
0.105 2.35126e-14 	0 	0 	
0.115 2.35126e-14 	0 	0 	
0.125 -7.05381e-14 	0 	0 	
0.135 9.40508e-14 	0 	0 	
0.145 4.70256e-14 	0 	0 	
0.155 -7.05381e-14 	0 	0 	
0.165 -1.17563e-13 	0 	0 	
0.175 2.35126e-14 	0 	0 	
0.185 2.35127e-14 	0 	0 	
0.195 -7.05381e-14 	0 	0 	
0.205 -2.35126e-14 	3.58935e-30 	0 	
0.215 7.05381e-14 	0 	0 	
0.225 -1.04417e-29 	0 	0 	
0.235 7.0538e-14 	0 	0 	
0.245 -2.35127e-14 	0 	0 	
0.255 1.17563e-13 	0 	0 	
0.265 -9.40508e-14 	0 	0 	
0.275 -1.41076e-13 	0 	0 	
0.285 -1.17564e-13 	0 	0 	
0.295 4.70254e-14 	0 	0 	
0.305 2.35127e-14 	0 	0 	
0.315 -4.70254e-14 	0 	0 	
0.325 7.05381e-14 	0 	0 	
0.335 -7.0538e-14 	0 	0 	
0.345 2.35126e-14 	0 	0 	
0.355 -4.70254e-14 	0 	0 	
0.365 -5.83177e-25 	0 	0 	
0.375 2.35126e-14 	0 	0 	
0.385 1.17563e-13 	0 	0 	
0.395 5.25509e-11 	0 	0 	
0.405 1.92331e-07 	0 	0 	
0.415 6.29575e-05 	0 	0 	
0.425 0.00509106 	0 	0 	
0.435 0.144889 	0 	0 	
0.445 1.71756 	0 	0 	
0.455 9.69766 	0 	0 	
0.465 30.9878 	0 	0 	
0.475 66.8664 	0 	0 	
0.485 107.897 	0 	0 	
0.495 129.05 	0 	0 	
0.505 130.209 	-7.47433e-31 	0 	
0.515 130.123 	7.20644e-31 	0 	
0.525 129.404 	-1.00094e-30 	0 	
0.535 121.798 	-8.61412e-31 	0 	
0.545 84.21 	-9.40945e-31 	0 	
0.555 21.0979 	0 	0 	
0.565 1.37066 	0 	0 	
0.575 0.0354884 	0 	0 	
0.585 0.00034929 	0 	0 	
0.595 8.89119e-07 	0 	0 	
0.605 2.04684e-10 	0 	0 	
0.615 3.5269e-14 	0 	0 	
0.625 -1.76345e-14 	0 	0 	
0.635 1.76345e-14 	0 	0 	
0.645 3.5269e-14 	0 	0 	
0.655 7.05381e-14 	0 	0 	
0.665 5.29035e-14 	0 	0 	
0.675 5.29036e-14 	0 	0 	
0.685 1.76345e-14 	0 	0 	
0.695 1.74168e-24 	0 	0 	
0.705 3.5269e-14 	0 	0 	
0.715 1.76345e-14 	0 	0 	
0.725 3.5269e-14 	0 	0 	
0.735 -7.05379e-14 	0 	0 	
0.745 -7.0538e-14 	0 	0 	
0.755 -1.76345e-14 	-1.346e-30 	0 	
0.765 1.76345e-14 	0 	0 	
0.775 8.70839e-25 	0 	0 	
0.785 7.0538e-14 	0 	0 	
0.795 -3.5269e-14 	-1.346e-30 	0 	
0.805 3.5269e-14 	-1.346e-30 	0 	
0.815 4.34631e-25 	0 	0 	
0.825 -7.0538e-14 	0 	0 	
0.835 -7.0538e-14 	0 	0 	
0.845 -1.76345e-14 	0 	0 	
0.855 1.76345e-14 	0 	0 	
0.865 -1.73857e-24 	0 	0 	
0.875 7.0538e-14 	0 	0 	
0.885 -3.5269e-14 	0 	0 	
0.895 3.5269e-14 	0 	0 	
0.905 -1.76345e-14 	0 	0 	
0.915 1.76345e-14 	0 	0 	
0.925 3.5269e-14 	0 	0 	
0.935 -1.76345e-14 	0 	0 	
0.945 1.76345e-14 	0 	0 	
0.955 3.5269e-14 	0 	0 	
0.965 1.76345e-14 	0 	0 	
0.975 -8.6772e-25 	0 	0 	
0.985 8.81725e-14 	0 	0 	
0.995 -3.5269e-14 	0 	0 	
