0.005 6.13679e-14 	0 	0 	
0.015 6.47777e-14 	0 	0 	
0.025 8.52336e-14 	0 	0 	
0.035 -4.43216e-14 	0 	0 	
0.045 1.70467e-14 	0 	0 	
0.055 -2.0456e-14 	0 	0 	
0.065 1.5683e-13 	0 	0 	
0.075 -5.11402e-14 	0 	0 	
0.085 -6.81858e-15 	0 	0 	
0.095 -6.13683e-14 	0 	0 	
0.105 -3.4093e-14 	0 	0 	
0.115 -4.0912e-14 	0 	0 	
0.125 -1.70465e-14 	0 	0 	
0.135 7.15963e-14 	0 	0 	
0.145 9.8871e-14 	0 	0 	
0.155 -3.40934e-14 	0 	0 	
0.165 3.75027e-14 	0 	0 	
0.175 -6.81867e-14 	0 	0 	
0.185 1.29555e-13 	-4.73142e-31 	0 	
0.195 -2.69338e-13 	0 	0 	
0.205 -6.8183e-15 	0 	0 	
0.215 0 	0 	0 	
0.225 1.0228e-13 	0 	0 	
0.235 1.02281e-14 	0 	0 	
0.245 -6.13683e-14 	0 	0 	
0.255 9.88707e-14 	-4.73142e-31 	0 	
0.265 -6.81902e-15 	-2.36571e-31 	0 	
0.275 6.8187e-14 	0 	0 	
0.285 1.0228e-13 	0 	0 	
0.295 -5.45496e-14 	0 	0 	
0.305 2.38654e-14 	0 	0 	
0.315 -2.38654e-14 	0 	0 	
0.325 -1.7047e-14 	0 	0 	
0.335 1.90923e-13 	0 	0 	
0.345 -1.0228e-14 	0 	0 	
0.355 4.11356e-25 	-2.36571e-31 	0 	
0.365 -6.81885e-15 	0 	0 	
0.375 5.114e-14 	0 	0 	
0.385 1.15918e-13 	0 	0 	
0.395 1.0228e-13 	0 	0 	
0.405 2.72743e-14 	0 	0 	
0.415 -2.72749e-14 	0 	0 	
0.425 -8.52335e-14 	0 	0 	
0.435 -7.15963e-14 	0 	0 	
0.445 -6.81868e-15 	0 	0 	
0.455 -3.40934e-15 	0 	0 	
0.465 -2.38655e-14 	0 	0 	
0.475 8.52336e-14 	0 	0 	
0.485 0.467514 	0 	0 	
0.495 52.603 	0 	0 	
0.505 110.121 	0 	0 	
0.515 2.03151 	0 	0 	
0.525 2.5e-19 	0 	0 	
0.535 -4.6026e-14 	0 	0 	
0.545 1.07394e-13 	0 	0 	
0.555 1.0228e-14 	0 	0 	
0.565 4.09119e-14 	0 	0 	
0.575 -1.15065e-13 	0 	0 	
0.585 1.02279e-14 	0 	0 	
0.595 -4.34691e-14 	0 	0 	
0.605 -8.1824e-14 	0 	0 	
0.615 -1.78993e-14 	0 	0 	
0.625 7.671e-14 	0 	0 	
0.635 5.36969e-14 	0 	0 	
0.645 -2.55705e-14 	0 	0 	
0.655 9.20525e-14 	0 	0 	
0.665 1.0228e-14 	0 	0 	
0.675 -2.557e-14 	0 	0 	
0.685 -1.27846e-14 	0 	0 	
0.695 -1.5342e-13 	0 	0 	
0.705 2.557e-14 	0 	0 	
0.715 -1.53423e-14 	0 	0 	
0.725 2.557e-14 	0 	0 	
0.735 8.4381e-14 	0 	0 	
0.745 -1.04837e-13 	0 	0 	
0.755 3.06845e-14 	0 	0 	
0.765 -4.60262e-14 	0 	0 	
0.775 -3.8355e-14 	0 	0 	
0.785 6.1368e-14 	0 	0 	
0.795 -4.60261e-14 	0 	0 	
0.805 -7.15965e-14 	0 	0 	
0.815 -8.6938e-14 	0 	0 	
0.825 3.8355e-14 	0 	0 	
0.835 3.0684e-14 	0 	0 	
0.845 1.84104e-13 	0 	0 	
0.855 1.7899e-14 	0 	0 	
0.865 2.55693e-15 	0 	0 	
0.875 -6.3925e-14 	0 	0 	
0.885 1.7899e-14 	0 	0 	
0.895 6.9039e-14 	0 	0 	
0.905 1.48306e-13 	0 	0 	
0.915 -9.9723e-14 	0 	0 	
0.925 -1.2785e-14 	0 	0 	
0.935 -6.13683e-14 	0 	0 	
0.945 -2.0456e-14 	0 	0 	
0.955 -4.09125e-14 	0 	0 	
0.965 -4.60263e-14 	0 	0 	
0.975 2.557e-14 	0 	0 	
0.985 -3.57981e-14 	0 	0 	
0.995 1.0228e-14 	0 	0 	
