0.005 -4.70727e-15 	0 	0 	
0.015 7.39743e-15 	0 	0 	
0.025 -1.0087e-14 	0 	0 	
0.035 -1.32475e-13 	0 	0 	
0.045 -3.22785e-14 	0 	0 	
0.055 6.9936e-14 	0 	0 	
0.065 2.48813e-14 	0 	0 	
0.075 -1.54667e-13 	0 	0 	
0.085 2.4209e-14 	0 	0 	
0.095 -1.79548e-13 	0 	0 	
0.105 9.28e-14 	0 	0 	
0.115 3.3623e-14 	4.43283e-30 	0 	
0.125 6.72465e-14 	0 	0 	
0.135 5.98494e-14 	0 	0 	
0.145 -1.04904e-13 	0 	0 	
0.155 -2.15191e-14 	0 	0 	
0.165 6.7246e-14 	0 	0 	
0.175 8.06954e-14 	0 	0 	
0.185 -1.16336e-13 	0 	0 	
0.195 3.09334e-14 	0 	0 	
0.205 -4.23651e-14 	0 	0 	
0.215 -6.52291e-14 	0 	0 	
0.225 4.03481e-14 	0 	0 	
0.235 3.16057e-14 	0 	0 	
0.245 6.79188e-14 	0 	0 	
0.255 1.76293e-24 	0 	0 	
0.265 -4.77451e-14 	0 	0 	
0.275 8.06958e-14 	0 	0 	
0.285 -6.25388e-14 	0 	0 	
0.295 1.34501e-15 	0 	0 	
0.305 4.70726e-15 	0 	0 	
0.315 6.72465e-14 	0 	0 	
0.325 -3.36234e-15 	0 	0 	
0.335 6.7246e-14 	0 	0 	
0.345 -7.73333e-14 	0 	0 	
0.355 5.91765e-14 	0 	0 	
0.365 3.02611e-14 	0 	0 	
0.375 1.68115e-14 	0 	0 	
0.385 -1.47942e-14 	0 	0 	
0.395 1.58029e-13 	0 	0 	
0.405 2.92816e-07 	0 	0 	
0.415 0.000489423 	0 	0 	
0.425 0.0480827 	0 	0 	
0.435 1.06792 	0 	0 	
0.445 7.83556 	0 	0 	
0.455 26.9884 	0 	0 	
0.465 58.9473 	0 	0 	
0.475 97.0027 	0 	0 	
0.485 124.951 	0 	0 	
0.495 130.194 	0 	0 	
0.505 130.179 	0 	0 	
0.515 130.138 	0 	0 	
0.525 130.098 	0 	0 	
0.535 129.917 	0 	0 	
0.545 126.686 	0 	0 	
0.555 102.625 	0 	0 	
0.565 27.0475 	0 	0 	
0.575 0.737149 	0 	0 	
0.585 0.00441763 	0 	0 	
0.595 1.7277e-06 	0 	0 	
0.605 2.07287e-13 	0 	0 	
0.615 -9.27996e-14 	0 	0 	
0.625 3.78259e-14 	0 	0 	
0.635 3.12699e-14 	0 	0 	
0.645 1.51303e-15 	0 	0 	
0.655 1.00891e-15 	0 	0 	
0.665 -1.56346e-14 	0 	0 	
0.675 -1.51306e-14 	0 	0 	
0.685 1.17009e-13 	0 	0 	
0.695 7.96869e-14 	0 	0 	
0.705 -8.12001e-14 	0 	0 	
0.715 -4.69046e-14 	0 	0 	
0.725 -5.29564e-14 	0 	0 	
0.735 2.92521e-14 	0 	0 	
0.745 -7.26256e-14 	0 	0 	
0.755 -2.52173e-14 	0 	0 	
0.765 2.52168e-15 	0 	0 	
0.775 -1.28609e-13 	0 	0 	
0.785 -2.52175e-14 	0 	0 	
0.795 -1.31131e-14 	0 	0 	
0.805 -4.4887e-14 	0 	0 	
0.815 4.40732e-25 	0 	0 	
0.825 7.06084e-14 	0 	0 	
0.835 1.05913e-14 	0 	0 	
0.845 7.56542e-15 	0 	0 	
0.855 -6.05216e-15 	0 	0 	
0.865 1.11965e-13 	0 	0 	
0.875 3.7826e-14 	0 	0 	
0.885 1.96696e-14 	0 	0 	
0.895 6.95997e-14 	0 	0 	
0.905 -5.74957e-14 	0 	0 	
0.915 7.06087e-15 	0 	0 	
0.925 -3.27823e-14 	0 	0 	
0.935 1.0793e-13 	0 	0 	
0.945 -8.32175e-14 	0 	0 	
0.955 -1.18522e-13 	0 	0 	
0.965 -4.53912e-15 	0 	0 	
0.975 -3.27824e-14 	0 	0 	
0.985 -6.25392e-14 	0 	0 	
0.995 -8.32172e-14 	0 	0 	
