0.005 4.90141e-14 	0 	0 	
0.015 8.22944e-14 	0 	0 	
0.025 9.99288e-14 	0 	0 	
0.035 9.11115e-14 	0 	0 	
0.045 3.52689e-14 	0 	0 	
0.055 -2.35127e-14 	0 	0 	
0.065 -2.93909e-14 	0 	0 	
0.075 -2.05736e-14 	0 	0 	
0.085 -2.64518e-14 	0 	0 	
0.095 -1.17563e-14 	0 	0 	
0.105 1.17563e-14 	0 	0 	
0.115 1.17563e-14 	0 	0 	
0.125 -1.17563e-14 	0 	0 	
0.135 -5.58426e-14 	0 	0 	
0.145 -9.99289e-14 	-4.0788e-30 	0 	
0.155 -1.2932e-13 	0 	0 	
0.165 -1.67528e-13 	0 	0 	
0.175 -2.05736e-13 	0 	0 	
0.185 -1.91041e-13 	0 	0 	
0.195 -1.14625e-13 	0 	0 	
0.205 -2.93909e-14 	0 	0 	
0.215 2.05736e-14 	0 	0 	
0.225 5.87817e-14 	0 	0 	
0.235 8.22944e-14 	8.15761e-30 	0 	
0.245 6.7599e-14 	0 	0 	
0.255 5.29035e-14 	0 	0 	
0.265 4.40863e-14 	0 	0 	
0.275 2.05736e-14 	0 	0 	
0.285 2.93908e-15 	0 	0 	
0.295 0 	0 	0 	
0.305 0 	0 	0 	
0.315 -2.93907e-15 	0 	0 	
0.325 2.9391e-15 	0 	0 	
0.335 8.81725e-15 	0 	0 	
0.345 -2.9391e-15 	0 	0 	
0.355 -5.87818e-15 	0 	0 	
0.365 -5.87817e-15 	0 	0 	
0.375 -3.23299e-14 	0 	0 	
0.385 -5.87817e-14 	0 	0 	
0.395 0.271877 	0 	0 	
0.405 3.9747 	0 	0 	
0.415 15.8299 	0 	0 	
0.425 35.5662 	0 	0 	
0.435 59.1116 	0 	0 	
0.445 83.1711 	0 	0 	
0.455 104.852 	0 	0 	
0.465 120.097 	0 	0 	
0.475 127.438 	0 	0 	
0.485 130.245 	0 	0 	
0.495 131.131 	0 	0 	
0.505 130.999 	0 	0 	
0.515 130.587 	0 	0 	
0.525 129.985 	0 	0 	
0.535 129.274 	0 	0 	
0.545 129.005 	0 	0 	
0.555 129.612 	0 	0 	
0.565 130.016 	0 	0 	
0.575 129.796 	-3.02571e-30 	0 	
0.585 126.928 	-6.79474e-31 	0 	
0.595 110.401 	0 	0 	
0.605 71.529 	0 	0 	
0.615 27.6376 	0 	0 	
0.625 4.42598 	0 	0 	
0.635 -9.69899e-14 	0 	0 	
0.645 -3.74734e-14 	0 	0 	
0.655 1.10215e-14 	0 	0 	
0.665 -4.40865e-15 	0 	0 	
0.675 -2.20432e-14 	0 	0 	
0.685 8.81725e-15 	0 	0 	
0.695 5.06992e-14 	0 	0 	
0.705 6.61295e-14 	0 	0 	
0.715 5.73122e-14 	0 	0 	
0.725 6.61295e-14 	0 	0 	
0.735 8.81728e-14 	0 	0 	
0.745 6.61295e-14 	0 	0 	
0.755 2.42475e-14 	0 	0 	
0.765 4.40863e-15 	0 	0 	
0.775 -4.40862e-15 	0 	0 	
0.785 -2.20431e-14 	0 	0 	
0.795 -2.64518e-14 	0 	0 	
0.805 2.2043e-15 	0 	0 	
0.815 2.42475e-14 	-6.11819e-30 	0 	
0.825 1.98389e-14 	0 	0 	
0.835 6.61295e-15 	0 	0 	
0.845 0 	0 	0 	
0.855 -8.81725e-15 	0 	0 	
0.865 -4.40862e-14 	0 	0 	
0.875 -7.27423e-14 	0 	0 	
0.885 -7.27424e-14 	0 	0 	
0.895 -6.17208e-14 	0 	0 	
0.905 -3.08604e-14 	0 	0 	
0.915 -1.76345e-14 	0 	0 	
0.925 -2.42475e-14 	0 	0 	
0.935 -1.10216e-14 	0 	0 	
0.945 1.54302e-14 	0 	0 	
0.955 5.06992e-14 	0 	0 	
0.965 7.49467e-14 	0 	0 	
0.975 7.49467e-14 	0 	0 	
0.985 6.61294e-14 	0 	0 	
0.995 4.89007e-14 	0 	0 	
