0.005 6.07704e-14 	0 	0 	
0.015 1.20502e-13 	0 	0 	
0.025 1.44015e-13 	0 	0 	
0.035 1.35198e-13 	0 	0 	
0.045 1.35198e-13 	0 	0 	
0.055 1.17563e-13 	0 	0 	
0.065 5.58425e-14 	0 	0 	
0.075 -1.76345e-14 	0 	0 	
0.085 -9.11115e-14 	0 	0 	
0.095 -1.46954e-13 	0 	0 	
0.105 -1.79284e-13 	0 	0 	
0.115 -1.88101e-13 	0 	0 	
0.125 -1.76345e-13 	0 	0 	
0.135 -1.99858e-13 	0 	0 	
0.145 -2.46883e-13 	-3.26305e-31 	0 	
0.155 -2.76274e-13 	0 	0 	
0.165 -2.90969e-13 	0 	0 	
0.175 -2.52761e-13 	0 	0 	
0.185 -1.46954e-13 	0 	0 	
0.195 -3.52689e-14 	0 	0 	
0.205 2.93908e-15 	0 	0 	
0.215 -5.8782e-15 	0 	0 	
0.225 1.76345e-14 	0 	0 	
0.235 4.40863e-14 	6.52609e-31 	0 	
0.245 6.46598e-14 	0 	0 	
0.255 1.02868e-13 	0 	0 	
0.265 1.26381e-13 	0 	0 	
0.275 1.41076e-13 	0 	0 	
0.285 1.55771e-13 	0 	0 	
0.295 1.2932e-13 	0 	0 	
0.305 8.22944e-14 	0 	0 	
0.315 6.46599e-14 	0 	0 	
0.325 5.29036e-14 	0 	0 	
0.335 8.81725e-15 	0 	0 	
0.345 -3.5269e-14 	0 	0 	
0.355 0.516292 	0 	0 	
0.365 4.18081 	0 	0 	
0.375 13.6998 	0 	0 	
0.385 27.9878 	0 	0 	
0.395 44.4176 	0 	0 	
0.405 61.5811 	0 	0 	
0.415 78.6732 	0 	0 	
0.425 94.9291 	0 	0 	
0.435 109.304 	0 	0 	
0.445 120.489 	0 	0 	
0.455 127.134 	0 	0 	
0.465 129.596 	0 	0 	
0.475 130.253 	0 	0 	
0.485 130.524 	0 	0 	
0.495 130.566 	0 	0 	
0.505 130.478 	0 	0 	
0.515 130.277 	0 	0 	
0.525 130.022 	0 	0 	
0.535 129.852 	0 	0 	
0.545 129.871 	0 	0 	
0.555 130.061 	0 	0 	
0.565 130.255 	0 	0 	
0.575 130.266 	-2.34208e-30 	0 	
0.585 130.09 	-1.18572e-30 	0 	
0.595 129.923 	0 	0 	
0.605 129.926 	0 	0 	
0.615 129.932 	0 	0 	
0.625 129.427 	0 	0 	
0.635 126.107 	0 	0 	
0.645 110.645 	0 	0 	
0.655 73.4651 	0 	0 	
0.665 29.4343 	0 	0 	
0.675 4.99133 	0 	0 	
0.685 1.76345e-14 	0 	0 	
0.695 5.73122e-14 	0 	0 	
0.705 2.86561e-14 	0 	0 	
0.715 -1.08863e-25 	0 	0 	
0.725 4.62906e-14 	0 	0 	
0.735 8.15597e-14 	0 	0 	
0.745 7.27424e-14 	0 	0 	
0.755 5.51079e-14 	0 	0 	
0.765 4.1882e-14 	0 	0 	
0.775 4.40863e-14 	0 	0 	
0.785 3.30647e-14 	0 	0 	
0.795 2.20432e-15 	0 	0 	
0.805 -1.10216e-14 	0 	0 	
0.815 -2.20431e-15 	-4.89455e-31 	0 	
0.825 1.32259e-14 	0 	0 	
0.835 3.08604e-14 	0 	0 	
0.845 4.1882e-14 	0 	0 	
0.855 3.08604e-14 	0 	0 	
0.865 4.40863e-15 	0 	0 	
0.875 -1.98388e-14 	0 	0 	
0.885 -4.62906e-14 	0 	0 	
0.895 -5.73122e-14 	0 	0 	
0.905 -3.30647e-14 	0 	0 	
0.915 2.20433e-15 	0 	0 	
0.925 1.98388e-14 	0 	0 	
0.935 2.20432e-14 	0 	0 	
0.945 3.08604e-14 	0 	0 	
0.955 3.96777e-14 	0 	0 	
0.965 3.52691e-14 	0 	0 	
0.975 4.84949e-14 	0 	0 	
0.985 6.61294e-14 	0 	0 	
0.995 4.33735e-14 	0 	0 	
