0.005 -8.87237e-14 	0 	0 	
0.015 -1.26748e-14 	0 	0 	
0.025 -2.53496e-14 	0 	0 	
0.035 5.06993e-14 	0 	0 	
0.045 -2.53496e-14 	0 	0 	
0.055 1.40719e-30 	0 	0 	
0.065 -8.87237e-14 	-8.67766e-30 	0 	
0.075 1.68998e-14 	0 	0 	
0.085 -7.18239e-14 	0 	0 	
0.095 2.95746e-14 	0 	0 	
0.105 -3.80244e-14 	0 	0 	
0.115 -1.47873e-13 	0 	0 	
0.125 1.05623e-13 	0 	0 	
0.135 8.87237e-14 	0 	0 	
0.145 -1.26748e-14 	0 	0 	
0.155 2.11247e-14 	0 	0 	
0.165 1.68998e-14 	0 	0 	
0.175 -2.53496e-14 	0 	0 	
0.185 4.22494e-14 	0 	0 	
0.195 -8.44987e-15 	0 	0 	
0.205 2.11247e-14 	0 	0 	
0.215 -1.43648e-13 	0 	0 	
0.225 -1.26748e-14 	0 	0 	
0.235 -1.26748e-13 	0 	0 	
0.245 -1.26748e-14 	0 	0 	
0.255 1.26748e-14 	0 	0 	
0.265 8.44988e-14 	0 	0 	
0.275 5.87266e-13 	0 	0 	
0.285 2.42304e-10 	0 	0 	
0.295 4.2363e-08 	0 	0 	
0.305 3.18314e-06 	0 	0 	
0.315 0.000119983 	0 	0 	
0.325 0.00258983 	0 	0 	
0.335 0.033482 	0 	0 	
0.345 0.263105 	0 	0 	
0.355 1.31945 	0 	0 	
0.365 4.48844 	0 	0 	
0.375 11.0914 	-9.69547e-31 	0 	
0.385 21.547 	0 	0 	
0.395 35.3501 	0 	0 	
0.405 51.6004 	0 	0 	
0.415 69.35 	0 	0 	
0.425 87.6246 	0 	0 	
0.435 105.105 	0 	0 	
0.445 119.488 	-1.70257e-31 	0 	
0.455 127.743 	1.22721e-30 	0 	
0.465 130.021 	0 	0 	
0.475 130.193 	0 	0 	
0.485 130.171 	3.53662e-31 	0 	
0.495 130.152 	0 	0 	
0.505 130.137 	0 	0 	
0.515 130.125 	1.77028e-31 	0 	
0.525 130.115 	0 	0 	
0.535 130.106 	0 	0 	
0.545 130.096 	0 	0 	
0.555 130.087 	-5.03144e-30 	0 	
0.565 130.074 	0 	0 	
0.575 130.058 	0 	0 	
0.585 130.033 	0 	0 	
0.595 129.998 	0 	0 	
0.605 129.943 	0 	0 	
0.615 129.776 	-2.90934e-30 	0 	
0.625 130.912 	0 	0 	
0.635 135.399 	0 	0 	
0.645 -181.904 	0 	0 	
0.655 60.7213 	0 	0 	
0.665 6.09518 	0 	0 	
0.675 0.229219 	0 	0 	
0.685 0.00636795 	0 	0 	
0.695 0.000120756 	0 	0 	
0.705 1.29692e-06 	0 	0 	
0.715 6.61644e-09 	0 	0 	
0.725 1.45063e-11 	7.38773e-30 	0 	
0.735 4.43618e-14 	0 	0 	
0.745 -7.6049e-14 	0 	0 	
0.755 4.75307e-14 	0 	0 	
0.765 -1.17242e-13 	-1.97006e-29 	0 	
0.775 -2.21809e-14 	0 	0 	
0.785 4.43617e-14 	0 	0 	
0.795 5.38682e-14 	0 	0 	
0.805 1.01399e-13 	0 	0 	
0.815 -3.1687e-14 	1.12575e-29 	0 	
0.825 8.55547e-14 	5.10105e-30 	0 	
0.835 -1.24993e-19 	0 	0 	
0.845 3.16869e-14 	0 	0 	
0.855 -1.07736e-13 	0 	0 	
0.865 -4.75306e-14 	0 	0 	
0.875 -6.97116e-14 	0 	0 	
0.885 4.43618e-14 	0 	0 	
0.895 -2.21808e-14 	0 	0 	
0.905 2.21808e-14 	0 	0 	
0.915 -1.74279e-13 	0 	0 	
0.925 4.11934e-14 	0 	0 	
0.935 1.55266e-13 	0 	0 	
0.945 1.58434e-14 	0 	0 	
0.955 1.23579e-13 	0 	0 	
0.965 1.10182e-25 	0 	0 	
0.975 3.16867e-14 	0 	0 	
0.985 -3.80241e-14 	0 	0 	
0.995 1.26747e-14 	0 	0 	
