0.005 7.0538e-14 	0 	0 	
0.015 2.46883e-13 	0 	0 	
0.025 3.52689e-14 	0 	0 	
0.035 -1.76345e-13 	0 	0 	
0.045 -3.5269e-14 	0 	0 	
0.055 1.05808e-13 	0 	0 	
0.065 7.0538e-14 	0 	0 	
0.075 1.76345e-13 	0 	0 	
0.085 2.52435e-29 	0 	0 	
0.095 3.5269e-14 	0 	0 	
0.105 6.5812e-24 	0 	0 	
0.115 7.0538e-14 	0 	0 	
0.125 3.5269e-14 	-4.28274e-30 	0 	
0.135 7.05385e-14 	0 	0 	
0.145 -3.94871e-24 	0 	0 	
0.155 -3.5269e-14 	0 	0 	
0.165 1.05807e-13 	0 	0 	
0.175 3.5269e-14 	-9.78913e-30 	0 	
0.185 -1.76345e-13 	-8.56548e-30 	0 	
0.195 7.0538e-14 	0 	0 	
0.205 -7.0538e-14 	0 	0 	
0.215 -3.5269e-14 	0 	0 	
0.225 7.0538e-14 	0 	0 	
0.235 7.0538e-14 	0 	0 	
0.245 -1.41076e-13 	0 	0 	
0.255 -2.11614e-13 	-1.00339e-29 	0 	
0.265 -3.5269e-14 	-9.54439e-30 	0 	
0.275 -7.0538e-14 	0 	0 	
0.285 -7.05381e-14 	0 	0 	
0.295 1.05807e-13 	0 	0 	
0.305 7.35007e-11 	0 	0 	
0.315 3.31783e-08 	0 	0 	
0.325 4.4649e-06 	0 	0 	
0.335 0.000242575 	0 	0 	
0.345 0.0062616 	0 	0 	
0.355 0.0847089 	-8.56726e-30 	0 	
0.365 0.64322 	0 	0 	
0.375 2.9347 	0 	0 	
0.385 8.8031 	0 	0 	
0.395 19.3025 	0 	0 	
0.405 34.0669 	-3.24496e-30 	0 	
0.415 51.9596 	2.28546e-30 	0 	
0.425 71.7125 	-1.21554e-30 	0 	
0.435 91.9537 	1.62069e-31 	0 	
0.445 110.625 	-3.44524e-31 	0 	
0.455 124.12 	1.08215e-30 	0 	
0.465 -2035.56 	-1.8396e-31 	0 	
0.475 133287 	0 	0 	
0.485 -2.65212e+26 	4.01954e-47 	0 	
0.495 -1.26484e+43 	4.1477e-61 	0 	
0.505 -1.68814e+49 	-6.38745e-74 	0 	
0.515 -5.33267e+55 	0 	0 	
0.525 6.29469e+57 	0 	0 	
0.535 -1.18985e+61 	0 	0 	
0.545 9.02599e+59 	0 	0 	
0.555 5.32691e+52 	0 	0 	
0.565 -2.41444e+61 	0 	0 	
0.575 -3.35276e+64 	0 	0 	
0.585 1.20881e+63 	0 	0 	
0.595 1.39766e+56 	0 	0 	
0.605 4.27765e+53 	0 	0 	
0.615 2.22827e+46 	0 	0 	
0.625 3.80585e+40 	0 	0 	
0.635 6.99013e+24 	0 	0 	
0.645 2.31768e+19 	0 	0 	
0.655 4.39652e+13 	0 	0 	
0.665 2.55185e+06 	0 	0 	
0.675 7.41786e-05 	0 	0 	
0.685 3.87383e-07 	0 	0 	
0.695 6.47592e-10 	0 	0 	
0.705 3.17421e-13 	0 	0 	
0.715 -2.6452e-14 	0 	0 	
0.725 -1.5871e-13 	0 	0 	
0.735 -2.38066e-13 	0 	0 	
0.745 -1.32259e-13 	0 	0 	
0.755 1.05807e-13 	0 	0 	
0.765 2.64515e-14 	0 	0 	
0.775 -1.05807e-13 	0 	0 	
0.785 1.58711e-13 	0 	0 	
0.795 -2.64515e-14 	0 	0 	
0.805 5.29037e-14 	0 	0 	
0.815 5.29035e-14 	0 	0 	
0.825 1.05807e-13 	0 	0 	
0.835 1.58711e-13 	0 	0 	
0.845 -1.05807e-13 	0 	0 	
0.855 1.05807e-13 	0 	0 	
0.865 7.93552e-14 	0 	0 	
0.875 -2.6452e-14 	0 	0 	
0.885 2.6452e-14 	0 	0 	
0.895 5.29037e-14 	0 	0 	
0.905 -1.05807e-13 	0 	0 	
0.915 2.64517e-14 	0 	0 	
0.925 -1.05807e-13 	0 	0 	
0.935 1.32259e-13 	0 	0 	
0.945 -5.29035e-14 	0 	0 	
0.955 2.64515e-14 	0 	0 	
0.965 2.64517e-14 	0 	0 	
0.975 1.95235e-24 	0 	0 	
0.985 2.6452e-14 	0 	0 	
0.995 -5.29035e-14 	0 	0 	
