0.005 -8.08256e-15 	0 	0 	
0.015 5.87813e-26 	0 	0 	
0.025 -2.42475e-14 	0 	0 	
0.035 -7.27425e-14 	0 	0 	
0.045 -7.27425e-14 	0 	0 	
0.055 4.04125e-14 	0 	0 	
0.065 4.8495e-14 	0 	0 	
0.075 4.04126e-14 	0 	0 	
0.085 -5.01733e-20 	0 	0 	
0.095 1.69733e-13 	0 	0 	
0.105 -2.42477e-14 	0 	0 	
0.115 1.77814e-13 	0 	0 	
0.125 2.42474e-14 	0 	0 	
0.135 8.0825e-14 	0 	0 	
0.145 9.699e-14 	0 	0 	
0.155 4.8495e-14 	0 	0 	
0.165 -1.61649e-14 	0 	0 	
0.175 -1.05073e-13 	0 	0 	
0.185 -1.21238e-13 	0 	0 	
0.195 -3.233e-14 	0 	0 	
0.205 -1.05073e-13 	0 	0 	
0.215 -1.05072e-13 	0 	0 	
0.225 -4.04125e-14 	0 	0 	
0.235 3.233e-14 	0 	0 	
0.245 2.42475e-14 	0 	0 	
0.255 1.37402e-13 	0 	0 	
0.265 -1.05073e-13 	0 	0 	
0.275 -4.84946e-14 	0 	0 	
0.285 -1.2932e-13 	0 	0 	
0.295 8.08249e-15 	0 	0 	
0.305 -8.89074e-14 	0 	0 	
0.315 -4.04126e-14 	5.60836e-30 	0 	
0.325 3.233e-14 	0 	0 	
0.335 1.80943e-10 	-5.60836e-30 	0 	
0.345 9.59121e-08 	0 	0 	
0.355 1.43407e-05 	-3.02851e-30 	0 	
0.365 0.000782095 	1.12167e-29 	0 	
0.375 0.019495 	0 	0 	
0.385 0.241174 	0 	0 	
0.395 1.61761 	0 	0 	
0.405 6.41053 	2.28468e-31 	0 	
0.415 16.9078 	0 	0 	
0.425 33.4957 	-1.23911e-30 	0 	
0.435 54.8208 	0 	0 	
0.445 78.8143 	-1.99851e-30 	0 	
0.455 102.644 	-2.4827e-30 	0 	
0.465 121.32 	-1.96834e-30 	0 	
0.475 129.272 	0 	0 	
0.485 130.201 	0 	0 	
0.495 130.182 	-6.77297e-31 	0 	
0.505 130.156 	-6.777e-31 	0 	
0.515 130.136 	0 	0 	
0.525 130.119 	0 	0 	
0.535 130.104 	0 	0 	
0.545 130.089 	0 	0 	
0.555 130.074 	0 	0 	
0.565 130.051 	0 	0 	
0.575 129.911 	0 	0 	
0.585 128.597 	0 	0 	
0.595 119.428 	0 	0 	
0.605 77.5459 	0 	0 	
0.615 13.508 	0 	0 	
0.625 0.587007 	0 	0 	
0.635 0.0136515 	0 	0 	
0.645 0.000170118 	0 	0 	
0.655 8.44772e-07 	0 	0 	
0.665 1.26167e-09 	0 	0 	
0.675 1.87918e-13 	0 	0 	
0.685 3.03094e-14 	0 	0 	
0.695 -2.42475e-14 	0 	0 	
0.705 1.21237e-14 	0 	0 	
0.715 -1.21238e-14 	0 	0 	
0.725 -2.42474e-14 	0 	0 	
0.735 -3.03094e-14 	0 	0 	
0.745 -8.81442e-25 	0 	0 	
0.755 7.88044e-14 	0 	0 	
0.765 3.63712e-14 	0 	0 	
0.775 4.8495e-14 	0 	0 	
0.785 1.81855e-14 	0 	0 	
0.795 4.24331e-14 	0 	0 	
0.805 6.06187e-14 	0 	0 	
0.815 3.63713e-14 	0 	0 	
0.825 1.15175e-13 	0 	0 	
0.835 2.42475e-14 	0 	0 	
0.845 2.42475e-14 	0 	0 	
0.855 4.2433e-14 	0 	0 	
0.865 -6.06186e-15 	0 	0 	
0.875 -1.09114e-13 	0 	0 	
0.885 7.27423e-14 	0 	0 	
0.895 3.03094e-14 	0 	0 	
0.905 -4.84949e-14 	0 	0 	
0.915 -9.09281e-14 	0 	0 	
0.925 6.06192e-15 	0 	0 	
0.935 -4.84951e-14 	0 	0 	
0.945 -3.63712e-14 	0 	0 	
0.955 -1.21238e-13 	0 	0 	
0.965 3.63712e-14 	0 	0 	
0.975 4.2433e-14 	0 	0 	
0.985 -9.09282e-14 	0 	0 	
0.995 9.09281e-14 	0 	0 	
