0.005 -1.84281e-14 	0 	0 	
0.015 -1.15594e-13 	0 	0 	
0.025 4.18822e-14 	0 	0 	
0.035 1.60826e-13 	0 	0 	
0.045 -3.35055e-14 	0 	0 	
0.055 -3.183e-14 	0 	0 	
0.065 -1.2062e-13 	0 	0 	
0.075 8.37639e-14 	0 	0 	
0.085 6.70112e-14 	0 	0 	
0.095 -2.68048e-14 	0 	0 	
0.105 -4.35571e-14 	0 	0 	
0.115 4.09186e-29 	0 	0 	
0.125 1.1727e-13 	0 	0 	
0.135 2.68043e-14 	0 	0 	
0.145 1.44074e-13 	0 	0 	
0.155 1.00516e-14 	0 	0 	
0.165 -3.51813e-14 	0 	0 	
0.175 -9.214e-14 	0 	0 	
0.185 7.7063e-14 	0 	0 	
0.195 1.00516e-14 	0 	0 	
0.205 -6.53357e-14 	0 	0 	
0.215 5.69593e-14 	0 	0 	
0.225 1.67528e-13 	0 	0 	
0.235 2.51292e-14 	0 	0 	
0.245 -1.65853e-13 	0 	0 	
0.255 -4.18822e-14 	0 	0 	
0.265 6.53357e-14 	0 	0 	
0.275 8.37643e-14 	0 	0 	
0.285 -5.52844e-14 	0 	0 	
0.295 -5.36089e-14 	0 	0 	
0.305 1.17268e-14 	0 	0 	
0.315 6.03101e-13 	0 	0 	
0.325 1.15042e-09 	0 	0 	
0.335 3.20263e-07 	0 	0 	
0.345 3.35955e-05 	0 	0 	
0.355 0.00139652 	0 	0 	
0.365 0.0274102 	0 	0 	
0.375 0.293422 	0 	0 	
0.385 1.7553 	0 	0 	
0.395 6.42608 	0 	0 	
0.405 16.1876 	0 	0 	
0.415 31.2595 	0 	0 	
0.425 50.465 	0 	0 	
0.435 72.197 	0 	0 	
0.445 94.5241 	0 	0 	
0.455 114.35 	0 	0 	
0.465 126.708 	6.9452e-31 	0 	
0.475 130.017 	0 	0 	
0.485 130.197 	0 	0 	
0.495 130.17 	0 	0 	
0.505 130.148 	0 	0 	
0.515 130.131 	0 	0 	
0.525 130.117 	0 	0 	
0.535 130.105 	0 	0 	
0.545 130.093 	0 	0 	
0.555 130.081 	0 	0 	
0.565 130.069 	0 	0 	
0.575 130.051 	0 	0 	
0.585 129.964 	0 	0 	
0.595 129.532 	0 	0 	
0.605 123.851 	0 	0 	
0.615 92.7581 	0 	0 	
0.625 24.7878 	0 	0 	
0.635 1.25145 	0 	0 	
0.645 0.0340482 	0 	0 	
0.655 0.000514624 	0 	0 	
0.665 3.4618e-06 	0 	0 	
0.675 9.6139e-09 	0 	0 	
0.685 4.99944e-12 	0 	0 	
0.695 -1.34441e-13 	0 	0 	
0.705 -7.03619e-14 	0 	0 	
0.715 9.04653e-14 	0 	0 	
0.725 -4.39764e-14 	0 	0 	
0.735 5.15148e-14 	0 	0 	
0.745 4.27197e-14 	0 	0 	
0.755 4.39761e-14 	0 	0 	
0.765 -4.14633e-14 	0 	0 	
0.775 1.88468e-14 	0 	0 	
0.785 4.39759e-14 	0 	0 	
0.795 -2.13597e-14 	0 	0 	
0.805 9.67471e-14 	0 	0 	
0.815 -2.51292e-14 	0 	0 	
0.825 1.88469e-14 	0 	0 	
0.835 -7.16181e-14 	0 	0 	
0.845 9.2978e-14 	0 	0 	
0.855 -6.40797e-14 	0 	0 	
0.865 -1.18107e-13 	0 	0 	
0.875 2.51292e-14 	0 	0 	
0.885 -2.51293e-14 	0 	0 	
0.895 7.79003e-14 	0 	0 	
0.905 7.53877e-14 	0 	0 	
0.915 3.51809e-14 	0 	0 	
0.925 6.28213e-15 	0 	0 	
0.935 -1.21877e-13 	0 	0 	
0.945 -6.65925e-14 	0 	0 	
0.955 5.27712e-14 	0 	0 	
0.965 -7.41313e-14 	0 	0 	
0.975 -2.5129e-14 	0 	0 	
0.985 3.01552e-14 	0 	0 	
0.995 -4.64891e-14 	0 	0 	
