0.005 5.19531e-14 	0 	0 	
0.015 9.11116e-14 	0 	0 	
0.025 1.14624e-13 	0 	0 	
0.035 1.41076e-13 	0 	0 	
0.045 1.49893e-13 	0 	0 	
0.055 1.05807e-13 	0 	0 	
0.065 4.70253e-14 	0 	0 	
0.075 -8.8173e-15 	0 	0 	
0.085 -6.7599e-14 	0 	0 	
0.095 -1.02868e-13 	0 	0 	
0.105 -1.32259e-13 	0 	0 	
0.115 -1.55771e-13 	0 	0 	
0.125 -1.76345e-13 	0 	0 	
0.135 -2.2337e-13 	0 	0 	
0.145 -2.55701e-13 	-1.79468e-30 	0 	
0.155 -2.55701e-13 	1.63152e-30 	0 	
0.165 -2.41005e-13 	0 	0 	
0.175 -1.9398e-13 	0 	0 	
0.185 -1.08746e-13 	0 	0 	
0.195 -8.8172e-15 	0 	0 	
0.205 4.99645e-14 	0 	0 	
0.215 5.58427e-14 	0 	0 	
0.225 8.22944e-14 	1.63152e-31 	0 	
0.235 1.11685e-13 	9.46283e-30 	0 	
0.245 9.40507e-14 	6.52609e-31 	0 	
0.255 7.34772e-14 	0 	0 	
0.265 6.7599e-14 	0 	0 	
0.275 5.87817e-14 	0 	0 	
0.285 5.58426e-14 	0 	0 	
0.295 7.93554e-14 	0 	0 	
0.305 1.11685e-13 	0 	0 	
0.315 1.14624e-13 	0 	0 	
0.325 8.52334e-14 	0 	0 	
0.335 3.82081e-14 	0 	0 	
0.345 -2.35126e-14 	0 	0 	
0.355 -8.52333e-14 	0 	0 	
0.365 -1.14624e-13 	0 	0 	
0.375 0.951482 	0 	0 	
0.385 6.35874 	0 	0 	
0.395 18.9229 	0 	0 	
0.405 36.6395 	0 	0 	
0.415 56.327 	0 	0 	
0.425 76.2847 	0 	0 	
0.435 95.0266 	0 	0 	
0.445 110.733 	0 	0 	
0.455 121.739 	0 	0 	
0.465 127.729 	0 	0 	
0.475 129.877 	0 	0 	
0.485 129.98 	0 	0 	
0.495 129.711 	0 	0 	
0.505 129.841 	0 	0 	
0.515 130.288 	0 	0 	
0.525 130.669 	0 	0 	
0.535 130.728 	0 	0 	
0.545 130.493 	0 	0 	
0.555 130.011 	0 	0 	
0.565 129.485 	0 	0 	
0.575 129.284 	-2.71434e-30 	0 	
0.585 129.514 	-1.86454e-30 	0 	
0.595 129.856 	0 	0 	
0.605 129.535 	0 	0 	
0.615 125.683 	0 	0 	
0.625 108.242 	0 	0 	
0.635 69.0228 	0 	0 	
0.645 25.844 	0 	0 	
0.655 3.9204 	0 	0 	
0.665 -1.10216e-14 	0 	0 	
0.675 -8.81725e-15 	0 	0 	
0.685 2.86561e-14 	0 	0 	
0.695 7.0538e-14 	0 	0 	
0.705 5.95165e-14 	0 	0 	
0.715 2.20432e-14 	0 	0 	
0.725 3.08604e-14 	0 	0 	
0.735 6.83337e-14 	0 	0 	
0.745 7.05381e-14 	0 	0 	
0.755 4.40863e-14 	0 	0 	
0.765 3.08604e-14 	0 	0 	
0.775 3.74733e-14 	0 	0 	
0.785 3.96777e-14 	0 	0 	
0.795 3.08604e-14 	0 	0 	
0.805 3.08604e-14 	0 	0 	
0.815 3.08604e-14 	-7.58658e-30 	0 	
0.825 1.54302e-14 	0 	0 	
0.835 -8.81725e-15 	0 	0 	
0.845 -2.86561e-14 	0 	0 	
0.855 -3.96776e-14 	0 	0 	
0.865 -4.40863e-14 	0 	0 	
0.875 -5.73121e-14 	0 	0 	
0.885 -7.71509e-14 	0 	0 	
0.895 -7.05381e-14 	0 	0 	
0.905 -4.1882e-14 	0 	0 	
0.915 -2.42475e-14 	0 	0 	
0.925 -2.64518e-14 	0 	0 	
0.935 -1.76345e-14 	0 	0 	
0.945 1.98388e-14 	0 	0 	
0.955 6.83337e-14 	0 	0 	
0.965 1.03603e-13 	0 	0 	
0.975 1.1242e-13 	0 	0 	
0.985 9.91942e-14 	0 	0 	
0.995 6.7281e-14 	0 	0 	
