0.005 1.6165e-14 	0 	0 	
0.015 1.37402e-13 	0 	0 	
0.025 3.233e-14 	0 	0 	
0.035 1.6165e-14 	0 	0 	
0.045 4.84949e-14 	0 	0 	
0.055 4.04121e-14 	0 	0 	
0.065 -1.6165e-14 	0 	0 	
0.075 1.61649e-14 	0 	0 	
0.085 5.65776e-14 	0 	0 	
0.095 6.466e-14 	0 	0 	
0.105 -5.87602e-25 	0 	0 	
0.115 7.27425e-14 	0 	0 	
0.125 1.21237e-13 	0 	0 	
0.135 8.08249e-14 	0 	0 	
0.145 2.02062e-13 	0 	0 	
0.155 -4.04125e-14 	0 	0 	
0.165 3.23299e-14 	0 	0 	
0.175 -2.42475e-14 	0 	0 	
0.185 3.23301e-14 	0 	0 	
0.195 -1.6165e-14 	0 	0 	
0.205 -8.89074e-14 	0 	0 	
0.215 8.8907e-14 	0 	0 	
0.225 4.04125e-14 	0 	0 	
0.235 -1.37402e-13 	0 	0 	
0.245 -3.233e-14 	0 	0 	
0.255 4.04126e-14 	0 	0 	
0.265 5.81939e-13 	0 	0 	
0.275 1.60365e-10 	0 	0 	
0.285 1.99965e-08 	0 	0 	
0.295 1.31296e-06 	0 	0 	
0.305 4.72683e-05 	0 	0 	
0.315 0.00102464 	8.9734e-30 	0 	
0.325 0.0136891 	0 	0 	
0.335 0.117637 	-8.30349e-30 	0 	
0.345 0.664216 	0 	0 	
0.355 2.56001 	-4.41004e-30 	0 	
0.365 7.09717 	1.60292e-29 	0 	
0.375 15.163 	0 	0 	
0.385 26.7358 	3.15785e-30 	0 	
0.395 41.1462 	0 	0 	
0.405 57.5338 	3.47291e-30 	0 	
0.415 75.0423 	0 	0 	
0.425 92.7232 	-5.97367e-31 	0 	
0.435 109.157 	0 	0 	
0.445 121.939 	-2.62954e-30 	0 	
0.455 128.546 	-2.86071e-30 	0 	
0.465 130.102 	-3.38094e-30 	0 	
0.475 130.192 	0 	0 	
0.485 130.169 	0 	0 	
0.495 130.152 	-1.26893e-30 	0 	
0.505 130.138 	-1.10007e-30 	0 	
0.515 130.126 	0 	0 	
0.525 130.116 	0 	0 	
0.535 130.108 	0 	0 	
0.545 130.1 	0 	0 	
0.555 130.093 	0 	0 	
0.565 130.086 	0 	0 	
0.575 130.079 	0 	0 	
0.585 130.071 	0 	0 	
0.595 130.062 	0 	0 	
0.605 130.051 	0 	0 	
0.615 130.016 	0 	0 	
0.625 129.782 	0 	0 	
0.635 128.127 	0 	0 	
0.645 118.719 	0 	0 	
0.655 79.6264 	0 	0 	
0.665 16.6424 	0 	0 	
0.675 0.981581 	0 	0 	
0.685 0.0386469 	0 	0 	
0.695 0.00109818 	0 	0 	
0.705 2.1329e-05 	0 	0 	
0.715 2.45141e-07 	0 	0 	
0.725 1.57704e-09 	0 	0 	
0.735 4.38879e-12 	0 	0 	
0.745 1.76288e-24 	0 	0 	
0.755 9.69899e-14 	0 	0 	
0.765 3.03093e-14 	0 	0 	
0.775 6.66807e-14 	0 	0 	
0.785 5.13373e-20 	0 	0 	
0.795 -6.06195e-15 	0 	0 	
0.805 8.48662e-14 	0 	0 	
0.815 4.8495e-14 	0 	0 	
0.825 -1.21237e-14 	0 	0 	
0.835 -1.21237e-14 	0 	0 	
0.845 4.2433e-14 	0 	0 	
0.855 6.06186e-15 	0 	0 	
0.865 7.27425e-14 	0 	0 	
0.875 4.84949e-14 	0 	0 	
0.885 -1.21237e-14 	0 	0 	
0.895 -2.42475e-14 	0 	0 	
0.905 -9.699e-14 	0 	0 	
0.915 -1.15176e-13 	0 	0 	
0.925 -6.66804e-14 	0 	0 	
0.935 -6.06181e-15 	0 	0 	
0.945 -6.06186e-15 	0 	0 	
0.955 -2.42475e-14 	0 	0 	
0.965 -4.24331e-14 	0 	0 	
0.975 4.24332e-14 	0 	0 	
0.985 -6.66805e-14 	0 	0 	
0.995 3.63712e-14 	0 	0 	
