0.005 1.09246e-13 	0 	0 	
0.015 9.36392e-14 	0 	0 	
0.025 -8.67005e-15 	0 	0 	
0.035 -1.21383e-14 	0 	0 	
0.045 -9.71077e-14 	0 	0 	
0.055 -2.08087e-14 	0 	0 	
0.065 1.12714e-13 	0 	0 	
0.075 -1.73406e-14 	0 	0 	
0.085 6.93624e-14 	2.40649e-30 	0 	
0.095 1.63002e-13 	0 	0 	
0.105 -6.24262e-14 	0 	0 	
0.115 1.1098e-13 	-1.20325e-30 	0 	
0.125 -4.11337e-24 	9.62597e-31 	0 	
0.135 -1.21385e-14 	0 	0 	
0.145 1.09246e-13 	0 	0 	
0.155 -3.81493e-14 	0 	0 	
0.165 -3.46812e-15 	0 	0 	
0.175 -2.60108e-14 	0 	0 	
0.185 -9.71075e-14 	0 	0 	
0.195 -1.1965e-13 	0 	0 	
0.205 1.31789e-13 	0 	0 	
0.215 -2.42767e-14 	0 	0 	
0.225 6.0692e-14 	0 	0 	
0.235 -2.60109e-14 	0 	0 	
0.245 4.68196e-14 	0 	0 	
0.255 9.71076e-14 	0 	0 	
0.265 -6.76284e-14 	0 	0 	
0.275 -9.53735e-14 	0 	0 	
0.285 -1.57799e-13 	0 	0 	
0.295 -9.71073e-14 	0 	0 	
0.305 -1.30055e-13 	0 	0 	
0.315 1.90747e-14 	0 	0 	
0.325 -7.80326e-14 	0 	0 	
0.335 -1.47395e-13 	0 	0 	
0.345 -1.38725e-14 	0 	0 	
0.355 -5.72242e-14 	0 	0 	
0.365 -1.73403e-15 	0 	0 	
0.375 -2.60111e-14 	0 	0 	
0.385 5.20218e-15 	0 	0 	
0.395 1.21384e-13 	0 	0 	
0.405 -6.24261e-14 	0 	0 	
0.415 8.32348e-14 	0 	0 	
0.425 1.73408e-14 	0 	0 	
0.435 3.46812e-15 	0 	0 	
0.445 -6.06923e-14 	0 	0 	
0.455 2.25429e-14 	0 	0 	
0.465 -2.08088e-14 	0 	0 	
0.475 0.513523 	0 	0 	
0.485 21.782 	0 	0 	
0.495 100.466 	0 	0 	
0.505 129.848 	0 	0 	
0.515 97.2612 	0 	0 	
0.525 3.60267 	0 	0 	
0.535 -4.03168e-14 	0 	0 	
0.545 4.29181e-14 	0 	0 	
0.555 -3.64151e-14 	0 	0 	
0.565 -9.49397e-14 	0 	0 	
0.575 -6.50288e-15 	0 	0 	
0.585 1.17049e-14 	0 	0 	
0.595 7.6732e-14 	0 	0 	
0.605 -8.58363e-14 	0 	0 	
0.615 -7.41313e-14 	0 	0 	
0.625 -5.20215e-14 	0 	0 	
0.635 7.8032e-15 	0 	0 	
0.645 -6.50271e-14 	0 	0 	
0.655 2.86121e-14 	0 	0 	
0.665 1.88579e-13 	0 	0 	
0.675 -1.30054e-14 	0 	0 	
0.685 7.8033e-15 	0 	0 	
0.695 -9.75408e-14 	0 	0 	
0.705 -2.34098e-14 	0 	0 	
0.715 -8.8437e-14 	0 	0 	
0.725 -1.95083e-14 	0 	0 	
0.735 -1.69072e-14 	0 	0 	
0.745 4.81202e-14 	0 	0 	
0.755 1.02743e-13 	0 	0 	
0.765 6.50246e-15 	0 	0 	
0.775 5.20218e-14 	0 	0 	
0.785 -2.60127e-15 	0 	0 	
0.795 7.54318e-14 	0 	0 	
0.805 -3.90163e-15 	0 	0 	
0.815 -1.07946e-13 	0 	0 	
0.825 -7.80325e-14 	0 	0 	
0.835 -3.12131e-14 	0 	0 	
0.845 7.67325e-14 	0 	0 	
0.855 -1.69074e-14 	0 	0 	
0.865 -6.50289e-15 	0 	0 	
0.875 7.80326e-14 	0 	0 	
0.885 2.6011e-14 	0 	0 	
0.895 -4.40736e-25 	0 	0 	
0.905 7.15302e-14 	0 	0 	
0.915 -3.25138e-14 	0 	0 	
0.925 -6.50275e-15 	0 	0 	
0.935 -7.4131e-14 	0 	0 	
0.945 7.54314e-14 	0 	0 	
0.955 -4.94207e-14 	0 	0 	
0.965 5.98251e-14 	0 	0 	
0.975 1.95081e-14 	0 	0 	
0.985 -5.46232e-14 	0 	0 	
0.995 -2.6011e-15 	0 	0 	
