0.005 1.62645e-09 	0 	0 	
0.015 -4.51867e-09 	0 	0 	
0.025 7.7235e-10 	0 	0 	
0.035 -2.9757e-09 	0 	0 	
0.045 -4.7314e-09 	0 	0 	
0.055 8.1575e-10 	0 	0 	
0.065 -3.27062e-09 	0 	0 	
0.075 2.21285e-09 	0 	0 	
0.085 -2.37844e-09 	0 	0 	
0.095 -2.08022e-09 	0 	0 	
0.105 1.57535e-09 	0 	0 	
0.115 9.6295e-10 	0 	0 	
0.125 2.09098e-09 	0 	0 	
0.135 9.615e-11 	0 	0 	
0.145 3.2635e-09 	0 	0 	
0.155 -3.45505e-09 	0 	0 	
0.165 3.4709e-09 	0 	0 	
0.175 -2.94839e-09 	0 	0 	
0.185 -3.07546e-09 	0 	0 	
0.195 3.70771e-09 	0 	0 	
0.205 -5.96333e-09 	0 	0 	
0.215 -2.217e-10 	0 	0 	
0.225 -1.38631e-09 	0 	0 	
0.235 -9.63e-11 	0 	0 	
0.245 1.6747e-09 	0 	0 	
0.255 -9.5955e-10 	0 	0 	
0.265 2.25581e-09 	0 	0 	
0.275 1.42915e-09 	0 	0 	
0.285 3.6827e-10 	0 	0 	
0.295 4.004e-10 	0 	0 	
0.305 -1.593e-11 	0 	0 	
0.315 -6.83575e-10 	0 	0 	
0.325 -1.78035e-09 	0 	0 	
0.335 2.94955e-09 	0 	0 	
0.345 1.59925e-09 	0 	0 	
0.355 7.0985e-10 	0 	0 	
0.365 3.24986e-09 	0 	0 	
0.375 -3.97225e-09 	0 	0 	
0.385 -1.28136e-09 	0 	0 	
0.395 3.76965e-10 	0 	0 	
0.405 -3.02855e-09 	0 	0 	
0.415 5.115e-12 	0 	0 	
0.425 -9.6355e-10 	0 	0 	
0.435 -3.23715e-09 	0 	0 	
0.445 4.16995e-10 	0 	0 	
0.455 1.30409e-09 	0 	0 	
0.465 -4.465e-10 	0 	0 	
0.475 -1053.51 	0 	0 	
0.485 -1.36261e+10 	0 	0 	
0.495 -1.10892e+15 	0 	0 	
0.505 7.27572e+26 	0 	0 	
0.515 8.39435e+17 	0 	0 	
0.525 16230.7 	0 	0 	
0.535 -8.044e-10 	0 	0 	
0.545 -8.9389e-10 	0 	0 	
0.555 2.78555e-09 	0 	0 	
0.565 2.21075e-09 	0 	0 	
0.575 7.85355e-10 	0 	0 	
0.585 4.25909e-09 	0 	0 	
0.595 3.25315e-09 	0 	0 	
0.605 -7.3683e-10 	0 	0 	
0.615 1.3446e-10 	0 	0 	
0.625 8.0325e-11 	0 	0 	
0.635 -4.72315e-09 	0 	0 	
0.645 -6.37005e-09 	0 	0 	
0.655 2.06137e-09 	0 	0 	
0.665 -7.455e-11 	0 	0 	
0.675 3.00929e-09 	0 	0 	
0.685 2.71214e-09 	0 	0 	
0.695 -2.35765e-09 	0 	0 	
0.705 -1.81655e-09 	0 	0 	
0.715 7.93e-11 	0 	0 	
0.725 -2.13452e-09 	0 	0 	
0.735 -3.74985e-09 	0 	0 	
0.745 -5.3459e-09 	0 	0 	
0.755 1.09294e-09 	0 	0 	
0.765 1.6878e-09 	0 	0 	
0.775 3.5151e-09 	0 	0 	
0.785 4.24385e-09 	0 	0 	
0.795 -2.13267e-09 	0 	0 	
0.805 2.62975e-09 	0 	0 	
0.815 3.6841e-09 	0 	0 	
0.825 -3.0733e-09 	0 	0 	
0.835 1.40625e-09 	0 	0 	
0.845 -1.87965e-09 	0 	0 	
0.855 -4.5468e-09 	0 	0 	
0.865 1.93705e-09 	0 	0 	
0.875 3.82104e-09 	0 	0 	
0.885 -9.5615e-10 	0 	0 	
0.895 1.49065e-09 	0 	0 	
0.905 -5.12309e-09 	0 	0 	
0.915 -2.59139e-09 	0 	0 	
0.925 -4.9169e-09 	0 	0 	
0.935 1.48535e-09 	0 	0 	
0.945 3.41751e-09 	0 	0 	
0.955 1.46283e-09 	0 	0 	
0.965 1.89681e-09 	0 	0 	
0.975 1.67347e-09 	0 	0 	
0.985 -8.91025e-10 	0 	0 	
0.995 -9.5438e-10 	0 	0 	
