0.005 4.43216e-14 	0 	0 	
0.015 8.86431e-14 	0 	0 	
0.025 1.70467e-13 	0 	0 	
0.035 -1.09099e-13 	0 	0 	
0.045 -4.77306e-14 	0 	0 	
0.055 3.40934e-15 	0 	0 	
0.065 2.38654e-14 	0 	0 	
0.075 3.40934e-14 	0 	0 	
0.085 2.04562e-14 	0 	0 	
0.095 -5.7959e-14 	0 	0 	
0.105 5.7959e-14 	0 	0 	
0.115 -2.04559e-14 	0 	0 	
0.125 -3.40937e-14 	0 	0 	
0.135 7.1596e-14 	0 	0 	
0.145 6.8187e-15 	0 	0 	
0.155 -3.75029e-14 	0 	0 	
0.165 3.40928e-15 	0 	0 	
0.175 -1.70465e-14 	0 	0 	
0.185 6.81862e-15 	-1.65599e-30 	0 	
0.195 -6.8187e-15 	0 	0 	
0.205 -3.40936e-14 	0 	0 	
0.215 1.22736e-13 	0 	0 	
0.225 -5.11398e-14 	0 	0 	
0.235 3.7503e-14 	0 	0 	
0.245 -9.88711e-14 	0 	0 	
0.255 -5.11403e-14 	-1.65599e-30 	0 	
0.265 -3.75029e-14 	-9.46282e-31 	0 	
0.275 -3.40933e-14 	0 	0 	
0.285 -3.409e-15 	0 	0 	
0.295 5.79586e-14 	0 	0 	
0.305 -9.88707e-14 	0 	0 	
0.315 -7.84146e-14 	0 	0 	
0.325 -6.81867e-14 	0 	0 	
0.335 1.39783e-13 	0 	0 	
0.345 1.73876e-13 	0 	0 	
0.355 -1.39783e-13 	-7.09711e-31 	0 	
0.365 1.29555e-13 	0 	0 	
0.375 1.19327e-13 	0 	0 	
0.385 3.06841e-14 	0 	0 	
0.395 -1.19327e-13 	0 	0 	
0.405 -6.81866e-15 	0 	0 	
0.415 6.47777e-14 	0 	0 	
0.425 -1.70467e-14 	0 	0 	
0.435 -9.54616e-14 	0 	0 	
0.445 -1.70468e-14 	0 	0 	
0.455 -3.75027e-14 	0 	0 	
0.465 0.353145 	0 	0 	
0.475 10.8595 	0 	0 	
0.485 56.3295 	0 	0 	
0.495 120.682 	5.26246e-31 	0 	
0.505 130.166 	0 	0 	
0.515 127.461 	0 	0 	
0.525 80.5576 	0 	0 	
0.535 3.21273 	0 	0 	
0.545 -5.36971e-14 	0 	0 	
0.555 -1.22736e-13 	0 	0 	
0.565 6.64823e-14 	0 	0 	
0.575 -7.671e-14 	0 	0 	
0.585 3.57984e-14 	0 	0 	
0.595 9.20524e-14 	0 	0 	
0.605 -1.12508e-13 	0 	0 	
0.615 7.671e-15 	0 	0 	
0.625 2.55701e-14 	0 	0 	
0.635 -2.04559e-14 	0 	0 	
0.645 7.67105e-14 	0 	0 	
0.655 -3.06844e-14 	0 	0 	
0.665 -2.8127e-14 	0 	0 	
0.675 -3.8355e-14 	0 	0 	
0.685 2.3013e-14 	0 	0 	
0.695 -3.5798e-14 	0 	0 	
0.705 -1.5342e-14 	0 	0 	
0.715 7.9267e-14 	0 	0 	
0.725 7.49959e-20 	0 	0 	
0.735 3.83551e-14 	0 	0 	
0.745 -5.11405e-14 	0 	0 	
0.755 7.67105e-14 	0 	0 	
0.765 -1.5342e-14 	0 	0 	
0.775 -2.55698e-14 	0 	0 	
0.785 -2.3013e-14 	0 	0 	
0.795 -4.60261e-14 	0 	0 	
0.805 -6.3925e-14 	0 	0 	
0.815 -1.63648e-13 	0 	0 	
0.825 5.114e-14 	0 	0 	
0.835 -6.13679e-14 	0 	0 	
0.845 -2.8127e-14 	0 	0 	
0.855 1.61091e-13 	0 	0 	
0.865 -7.4153e-14 	0 	0 	
0.875 -1.27852e-14 	0 	0 	
0.885 5.11401e-15 	0 	0 	
0.895 -1.58534e-13 	0 	0 	
0.905 1.0228e-14 	0 	0 	
0.915 -1.7899e-14 	0 	0 	
0.925 3.8355e-14 	0 	0 	
0.935 -2.55701e-14 	0 	0 	
0.945 -1.40636e-13 	0 	0 	
0.955 1.20179e-13 	0 	0 	
0.965 -3.57981e-14 	0 	0 	
0.975 -3.83552e-14 	0 	0 	
0.985 -2.04564e-14 	0 	0 	
0.995 6.6482e-14 	0 	0 	
