0.005 1.00517e-14 	0 	0 	
0.015 -4.8583e-14 	0 	0 	
0.025 -1.67527e-14 	0 	0 	
0.035 -3.18307e-14 	0 	0 	
0.045 1.13919e-13 	0 	0 	
0.055 3.183e-14 	0 	0 	
0.065 3.18302e-14 	0 	0 	
0.075 -1.75905e-13 	0 	0 	
0.085 -3.68562e-14 	0 	0 	
0.095 5.02584e-15 	0 	0 	
0.105 -5.0259e-15 	0 	0 	
0.115 9.54909e-14 	0 	0 	
0.125 9.21401e-14 	0 	0 	
0.135 -2.68049e-14 	0 	0 	
0.145 1.17269e-14 	0 	0 	
0.155 -8.3762e-15 	0 	0 	
0.165 -6.70112e-14 	0 	0 	
0.175 -2.51291e-14 	0 	0 	
0.185 3.68561e-14 	0 	0 	
0.195 9.54908e-14 	0 	0 	
0.205 3.35056e-14 	0 	0 	
0.215 -1.25646e-13 	0 	0 	
0.225 -1.67526e-14 	0 	0 	
0.235 1.5245e-13 	0 	0 	
0.245 1.67535e-15 	0 	0 	
0.255 -2.17786e-14 	0 	0 	
0.265 1.30672e-13 	0 	0 	
0.275 -5.02584e-14 	0 	0 	
0.285 1.17525e-24 	0 	0 	
0.295 8.04133e-14 	0 	0 	
0.305 2.84796e-14 	0 	0 	
0.315 -1.50777e-14 	0 	0 	
0.325 -1.42399e-13 	0 	0 	
0.335 -3.51813e-14 	0 	0 	
0.345 -7.8738e-14 	0 	0 	
0.355 2.93845e-12 	0 	0 	
0.365 2.53324e-08 	0 	0 	
0.375 1.28597e-05 	0 	0 	
0.385 0.00129817 	0 	0 	
0.395 0.0415449 	0 	0 	
0.405 0.55765 	0 	0 	
0.415 3.56935 	0 	0 	
0.425 12.6285 	0 	0 	
0.435 29.6762 	0 	0 	
0.445 53.5411 	0 	0 	
0.455 81.2183 	0 	0 	
0.465 108.143 	9.85203e-31 	0 	
0.475 125.863 	0 	0 	
0.485 130.092 	0 	0 	
0.495 130.195 	0 	0 	
0.505 130.162 	0 	0 	
0.515 130.137 	0 	0 	
0.525 130.116 	0 	0 	
0.535 130.097 	0 	0 	
0.545 130.077 	0 	0 	
0.555 130.031 	0 	0 	
0.565 129.567 	0 	0 	
0.575 126.087 	0 	0 	
0.585 98.786 	0 	0 	
0.595 26.701 	0 	0 	
0.605 1.14617 	0 	0 	
0.615 0.0200344 	0 	0 	
0.625 0.000129851 	0 	0 	
0.635 1.8532e-07 	0 	0 	
0.645 1.70778e-11 	0 	0 	
0.655 -2.38729e-14 	0 	0 	
0.665 -2.26163e-14 	0 	0 	
0.675 -1.8847e-14 	0 	0 	
0.685 -7.9157e-14 	0 	0 	
0.695 3.64372e-14 	0 	0 	
0.705 6.78489e-14 	0 	0 	
0.715 3.51809e-14 	0 	0 	
0.725 -2.51293e-14 	0 	0 	
0.735 4.90018e-14 	0 	0 	
0.745 -8.79522e-15 	0 	0 	
0.755 9.17216e-14 	0 	0 	
0.765 4.90019e-14 	0 	0 	
0.775 -1.25648e-14 	0 	0 	
0.785 6.2824e-15 	0 	0 	
0.795 -4.0207e-14 	0 	0 	
0.805 5.02584e-14 	0 	0 	
0.815 -2.136e-14 	0 	0 	
0.825 6.28229e-14 	0 	0 	
0.835 -7.41312e-14 	0 	0 	
0.845 -1.50777e-14 	0 	0 	
0.855 1.6334e-14 	0 	0 	
0.865 2.13601e-14 	0 	0 	
0.875 4.39762e-14 	0 	0 	
0.885 1.13081e-14 	0 	0 	
0.895 7.91569e-14 	0 	0 	
0.905 8.79522e-14 	0 	0 	
0.915 1.8847e-14 	0 	0 	
0.925 6.2825e-15 	0 	0 	
0.935 -9.80038e-14 	0 	0 	
0.945 4.9002e-14 	0 	0 	
0.955 -9.04651e-14 	0 	0 	
0.965 6.91052e-14 	0 	0 	
0.975 -8.79522e-14 	0 	0 	
0.985 3.39245e-14 	0 	0 	
0.995 -5.27713e-14 	0 	0 	
