0.005 1.56626e-29 	0 	0 	
0.015 3.5269e-14 	0 	0 	
0.025 1.76345e-13 	0 	0 	
0.035 2.82152e-13 	0 	0 	
0.045 1.41076e-13 	0 	0 	
0.055 -2.46883e-13 	0 	0 	
0.065 -7.0538e-14 	0 	0 	
0.075 -7.0538e-14 	0 	0 	
0.085 -3.52695e-14 	0 	0 	
0.095 7.0538e-14 	0 	0 	
0.105 3.5269e-14 	0 	0 	
0.115 -3.5269e-14 	0 	0 	
0.125 3.5269e-14 	-3.67092e-31 	0 	
0.135 -1.05807e-13 	0 	0 	
0.145 1.05807e-13 	0 	0 	
0.155 -9.3517e-30 	0 	0 	
0.165 3.5269e-14 	0 	0 	
0.175 -7.05379e-14 	-7.34184e-31 	0 	
0.185 2.11614e-13 	-9.78913e-31 	0 	
0.195 3.5269e-14 	0 	0 	
0.205 -1.05807e-13 	0 	0 	
0.215 -3.5269e-14 	0 	0 	
0.225 -3.5269e-14 	0 	0 	
0.235 2.11614e-13 	0 	0 	
0.245 -7.0538e-14 	0 	0 	
0.255 1.41076e-13 	-9.78913e-31 	0 	
0.265 -3.5269e-14 	-9.78913e-31 	0 	
0.275 -1.05807e-13 	0 	0 	
0.285 -2.11614e-13 	0 	0 	
0.295 -1.41076e-13 	0 	0 	
0.305 3.52691e-14 	0 	0 	
0.315 -1.41076e-13 	0 	0 	
0.325 7.0538e-14 	0 	0 	
0.335 -1.76345e-13 	0 	0 	
0.345 1.41077e-13 	0 	0 	
0.355 -7.0538e-14 	-7.34184e-31 	0 	
0.365 -1.05807e-13 	0 	0 	
0.375 -3.5269e-14 	0 	0 	
0.385 2.82152e-13 	0 	0 	
0.395 -1.05807e-13 	0 	0 	
0.405 1.76345e-13 	0 	0 	
0.415 -1.41076e-13 	7.34184e-31 	0 	
0.425 3.52691e-14 	7.34184e-31 	0 	
0.435 -3.5269e-14 	-4.89456e-31 	0 	
0.445 -8.7894e-29 	7.34184e-31 	0 	
0.455 7.0538e-14 	0 	0 	
0.465 -2.62185e-24 	0 	0 	
0.475 -1.41076e-13 	0 	0 	
0.485 7.31424 	3.72274e-31 	0 	
0.495 80.6811 	0 	0 	
0.505 126.061 	0 	0 	
0.515 46.4467 	0 	0 	
0.525 1.32258e-13 	0 	0 	
0.535 2.64515e-14 	0 	0 	
0.545 7.93555e-14 	0 	0 	
0.555 -5.29035e-14 	0 	0 	
0.565 -2.6452e-14 	0 	0 	
0.575 5.29035e-14 	0 	0 	
0.585 1.85162e-13 	0 	0 	
0.595 -1.05807e-13 	0 	0 	
0.605 -1.05807e-13 	0 	0 	
0.615 -1.96292e-24 	0 	0 	
0.625 1.85162e-13 	0 	0 	
0.635 -3.92581e-24 	0 	0 	
0.645 1.85162e-13 	0 	0 	
0.655 1.32259e-13 	0 	0 	
0.665 -1.32259e-13 	0 	0 	
0.675 -9.81449e-25 	0 	0 	
0.685 1.05807e-13 	0 	0 	
0.695 1.85162e-13 	0 	0 	
0.705 -9.7968e-25 	0 	0 	
0.715 -1.9594e-24 	0 	0 	
0.725 3.91878e-24 	0 	0 	
0.735 -1.05807e-13 	0 	0 	
0.745 1.9594e-24 	0 	0 	
0.755 2.64518e-14 	0 	0 	
0.765 -7.93555e-14 	0 	0 	
0.775 1.85162e-13 	0 	0 	
0.785 1.05807e-13 	0 	0 	
0.795 7.93555e-14 	0 	0 	
0.805 5.29035e-14 	0 	0 	
0.815 2.64515e-14 	0 	0 	
0.825 5.29035e-14 	0 	0 	
0.835 -5.29035e-14 	0 	0 	
0.845 -2.6452e-14 	0 	0 	
0.855 7.93552e-14 	0 	0 	
0.865 7.93553e-14 	0 	0 	
0.875 -1.32259e-13 	0 	0 	
0.885 2.64515e-14 	0 	0 	
0.895 7.93553e-14 	0 	0 	
0.905 -9.77917e-25 	0 	0 	
0.915 5.29035e-14 	0 	0 	
0.925 -7.9355e-14 	0 	0 	
0.935 9.77966e-25 	0 	0 	
0.945 2.64518e-14 	0 	0 	
0.955 1.05807e-13 	0 	0 	
0.965 -1.05807e-13 	0 	0 	
0.975 -2.64517e-13 	0 	0 	
0.985 -1.95237e-24 	0 	0 	
0.995 2.64517e-14 	0 	0 	
