0.005 -2.95746e-14 	0 	0 	
0.015 -1.09848e-13 	0 	0 	
0.025 5.91491e-14 	0 	0 	
0.035 8.87237e-14 	0 	0 	
0.045 1.30973e-13 	0 	0 	
0.055 -4.64743e-14 	0 	0 	
0.065 -5.06992e-14 	-3.28344e-30 	0 	
0.075 2.95746e-14 	0 	0 	
0.085 -1.26748e-14 	0 	0 	
0.095 -2.11247e-14 	0 	0 	
0.105 -2.53496e-14 	0 	0 	
0.115 -2.40821e-13 	0 	0 	
0.125 -4.64743e-14 	0 	0 	
0.135 9.71736e-14 	0 	0 	
0.145 5.49242e-14 	0 	0 	
0.155 -8.02738e-14 	0 	0 	
0.165 -1.39423e-13 	0 	0 	
0.175 7.18239e-14 	0 	0 	
0.185 -4.22494e-15 	0 	0 	
0.195 8.87237e-14 	0 	0 	
0.205 1.26748e-13 	0 	0 	
0.215 2.11247e-14 	0 	0 	
0.225 6.33741e-14 	0 	0 	
0.235 -1.60548e-13 	0 	0 	
0.245 -1.14073e-13 	0 	0 	
0.255 1.68998e-14 	0 	0 	
0.265 -7.18239e-14 	0 	0 	
0.275 1.68998e-14 	0 	0 	
0.285 6.33741e-14 	0 	0 	
0.295 3.37995e-14 	0 	0 	
0.305 5.06993e-14 	0 	0 	
0.315 -2.11247e-14 	0 	0 	
0.325 7.60489e-14 	0 	0 	
0.335 2.53496e-14 	0 	0 	
0.345 -4.64743e-14 	0 	0 	
0.355 8.44987e-15 	0 	0 	
0.365 -8.44987e-14 	0 	0 	
0.375 -7.18239e-14 	0 	0 	
0.385 7.18239e-14 	0 	0 	
0.395 -2.11247e-14 	0 	0 	
0.405 6.93201e-08 	0 	0 	
0.415 0.000265408 	0 	0 	
0.425 0.0340067 	0 	0 	
0.435 0.841435 	0 	0 	
0.445 6.76172 	0 	0 	
0.455 24.7444 	0 	0 	
0.465 55.822 	0 	0 	
0.475 93.8339 	0 	0 	
0.485 123.619 	8.63425e-31 	0 	
0.495 130.161 	0 	0 	
0.505 130.183 	0 	0 	
0.515 130.141 	0 	0 	
0.525 130.103 	0 	0 	
0.535 129.953 	0 	0 	
0.545 127.702 	0 	0 	
0.555 108.967 	-1.55906e-30 	0 	
0.565 33.2347 	0 	0 	
0.575 1.07843 	0 	0 	
0.585 0.00670479 	0 	0 	
0.595 2.81181e-06 	0 	0 	
0.605 9.50611e-15 	0 	0 	
0.615 2.21805e-14 	0 	0 	
0.625 1.01398e-13 	0 	0 	
0.635 6.33742e-15 	0 	0 	
0.645 -7.92173e-14 	0 	0 	
0.655 -3.1689e-15 	0 	0 	
0.665 -3.48555e-14 	0 	0 	
0.675 3.80242e-14 	0 	0 	
0.685 9.50613e-15 	0 	0 	
0.695 1.10905e-13 	0 	0 	
0.705 -7.60488e-14 	0 	0 	
0.715 1.90126e-14 	0 	0 	
0.725 1.10905e-13 	2.81437e-30 	0 	
0.735 -4.43618e-14 	0 	0 	
0.745 -4.75307e-14 	0 	0 	
0.755 -3.48557e-14 	0 	0 	
0.765 -4.11929e-14 	-7.73954e-30 	0 	
0.775 1.20411e-13 	0 	0 	
0.785 -3.65868e-29 	0 	0 	
0.795 6.97111e-14 	0 	0 	
0.805 3.16869e-14 	0 	0 	
0.815 -4.43619e-14 	3.51796e-30 	0 	
0.825 -5.38679e-14 	1.93489e-30 	0 	
0.835 9.50607e-15 	0 	0 	
0.845 -1.36254e-13 	0 	0 	
0.855 2.53494e-14 	0 	0 	
0.865 -3.80245e-14 	0 	0 	
0.875 -7.28803e-14 	0 	0 	
0.885 -1.26748e-14 	0 	0 	
0.895 -3.48556e-14 	0 	0 	
0.905 3.48556e-14 	0 	0 	
0.915 -7.92177e-14 	0 	0 	
0.925 1.14073e-13 	0 	0 	
0.935 9.18924e-14 	0 	0 	
0.945 1.36254e-13 	0 	0 	
0.955 9.82302e-14 	0 	0 	
0.965 3.48561e-14 	0 	0 	
0.975 -6.65429e-14 	0 	0 	
0.985 -9.50602e-15 	0 	0 	
0.995 6.33737e-15 	0 	0 	
