0.005 -1.41076e-13 	0 	0 	
0.015 1.05807e-13 	0 	0 	
0.025 1.41076e-13 	0 	0 	
0.035 7.05379e-14 	0 	0 	
0.045 1.05807e-13 	0 	0 	
0.055 3.94792e-24 	0 	0 	
0.065 0 	0 	0 	
0.075 -9.21169e-24 	0 	0 	
0.085 -7.0538e-14 	0 	0 	
0.095 -1.05807e-13 	0 	0 	
0.105 -3.94873e-24 	0 	0 	
0.115 -7.0538e-14 	0 	0 	
0.125 7.0538e-14 	-1.22364e-31 	0 	
0.135 1.41076e-13 	0 	0 	
0.145 0 	0 	0 	
0.155 7.89749e-24 	0 	0 	
0.165 3.5269e-14 	0 	0 	
0.175 -2.46883e-13 	-2.44729e-31 	0 	
0.185 -1.05807e-13 	-2.44729e-31 	0 	
0.195 1.41076e-13 	0 	0 	
0.205 -3.52691e-14 	0 	0 	
0.215 -1.76345e-13 	0 	0 	
0.225 1.76345e-13 	0 	0 	
0.235 3.5269e-14 	0 	0 	
0.245 -1.05807e-13 	0 	0 	
0.255 -1.41076e-13 	-4.89455e-31 	0 	
0.265 5.25789e-24 	-2.44729e-31 	0 	
0.275 0 	0 	0 	
0.285 -3.5269e-14 	0 	0 	
0.295 3.5269e-14 	0 	0 	
0.305 -1.31329e-24 	0 	0 	
0.315 1.41076e-13 	0 	0 	
0.325 3.5269e-14 	0 	0 	
0.335 3.5269e-14 	0 	0 	
0.345 -7.0538e-14 	0 	0 	
0.355 7.0538e-14 	-2.44729e-31 	0 	
0.365 7.05381e-14 	0 	0 	
0.375 7.05379e-14 	0 	0 	
0.385 2.62429e-24 	0 	0 	
0.395 -3.5269e-14 	0 	0 	
0.405 7.0538e-14 	0 	0 	
0.415 1.05807e-13 	2.44729e-31 	0 	
0.425 -1.05807e-13 	2.44729e-31 	0 	
0.435 7.86576e-24 	-2.44728e-31 	0 	
0.445 -1.41076e-13 	2.44729e-31 	0 	
0.455 1.31096e-24 	0 	0 	
0.465 3.5269e-14 	0 	0 	
0.475 1.41076e-13 	0 	0 	
0.485 1.41076e-13 	1.22364e-31 	0 	
0.495 22.2113 	0 	0 	
0.505 75.9923 	0 	0 	
0.515 1.5871e-13 	0 	0 	
0.525 4.91602e-24 	0 	0 	
0.535 3.93288e-24 	0 	0 	
0.545 1.05807e-13 	0 	0 	
0.555 -2.64515e-14 	0 	0 	
0.565 -5.29035e-14 	0 	0 	
0.575 3.92583e-24 	0 	0 	
0.585 1.05807e-13 	0 	0 	
0.595 -5.29035e-14 	0 	0 	
0.605 -5.29035e-14 	0 	0 	
0.615 -7.93555e-14 	0 	0 	
0.625 1.05807e-13 	0 	0 	
0.635 -2.64518e-14 	0 	0 	
0.645 1.32259e-13 	0 	0 	
0.655 -9.81375e-25 	0 	0 	
0.665 8.83295e-24 	0 	0 	
0.675 1.05807e-13 	0 	0 	
0.685 -5.29035e-14 	0 	0 	
0.695 2.6452e-14 	0 	0 	
0.705 -6.3109e-30 	0 	0 	
0.715 2.6452e-14 	0 	0 	
0.725 2.6452e-14 	0 	0 	
0.735 1.5871e-13 	0 	0 	
0.745 1.05807e-13 	0 	0 	
0.755 -2.64518e-14 	0 	0 	
0.765 -3.91878e-24 	0 	0 	
0.775 5.87821e-24 	0 	0 	
0.785 6.85782e-24 	0 	0 	
0.795 1.5871e-13 	0 	0 	
0.805 1.85162e-13 	0 	0 	
0.815 5.29035e-14 	0 	0 	
0.825 -1.32259e-13 	0 	0 	
0.835 2.93379e-24 	0 	0 	
0.845 -1.32259e-13 	0 	0 	
0.855 -7.93555e-14 	0 	0 	
0.865 -2.64515e-14 	0 	0 	
0.875 -7.93555e-14 	0 	0 	
0.885 5.29035e-14 	0 	0 	
0.895 7.93555e-14 	0 	0 	
0.905 5.29035e-14 	0 	0 	
0.915 -5.29035e-14 	0 	0 	
0.925 3.91176e-24 	0 	0 	
0.935 1.5871e-13 	0 	0 	
0.945 -5.29035e-14 	0 	0 	
0.955 2.11614e-13 	0 	0 	
0.965 -7.93555e-14 	0 	0 	
0.975 -2.64518e-14 	0 	0 	
0.985 1.05807e-13 	0 	0 	
0.995 4.88086e-24 	0 	0 	
