0.005 4.90141e-14 	0 	0 	
0.015 8.22944e-14 	0 	0 	
0.025 9.69898e-14 	0 	0 	
0.035 9.11116e-14 	0 	0 	
0.045 7.0538e-14 	0 	0 	
0.055 3.82081e-14 	0 	0 	
0.065 8.81725e-15 	0 	0 	
0.075 -1.46954e-14 	0 	0 	
0.085 -2.64518e-14 	0 	0 	
0.095 -5.87818e-15 	0 	0 	
0.105 -1.46954e-14 	0 	0 	
0.115 -6.46599e-14 	0 	0 	
0.125 -1.08746e-13 	0 	0 	
0.135 -1.55771e-13 	0 	0 	
0.145 -1.9104e-13 	-3.26305e-31 	0 	
0.155 -1.85163e-13 	0 	0 	
0.165 -1.58711e-13 	0 	0 	
0.175 -1.32259e-13 	0 	0 	
0.185 -8.52335e-14 	0 	0 	
0.195 -5.87815e-15 	0 	0 	
0.205 5.29036e-14 	0 	0 	
0.215 6.17208e-14 	0 	0 	
0.225 7.93552e-14 	0 	0 	
0.235 8.81724e-14 	6.52609e-31 	0 	
0.245 6.17207e-14 	0 	0 	
0.255 5.58426e-14 	0 	0 	
0.265 4.99645e-14 	0 	0 	
0.275 2.93909e-14 	0 	0 	
0.285 4.70254e-14 	0 	0 	
0.295 7.05381e-14 	0 	0 	
0.305 5.58427e-14 	0 	0 	
0.315 3.23299e-14 	0 	0 	
0.325 1.76345e-14 	0 	0 	
0.335 -1.17564e-14 	0 	0 	
0.345 -5.58426e-14 	0 	0 	
0.355 -6.7599e-14 	0 	0 	
0.365 -5.29036e-14 	0 	0 	
0.375 -4.70254e-14 	0 	0 	
0.385 -5.58426e-14 	0 	0 	
0.395 -6.7599e-14 	0 	0 	
0.405 0.117358 	0 	0 	
0.415 3.05757 	0 	0 	
0.425 13.9454 	0 	0 	
0.435 33.6784 	0 	0 	
0.445 57.9978 	0 	0 	
0.455 82.6214 	0 	0 	
0.465 104.382 	0 	0 	
0.475 120.064 	0 	0 	
0.485 128.435 	0 	0 	
0.495 131.469 	0 	0 	
0.505 131.385 	0 	0 	
0.515 129.976 	0 	0 	
0.525 129.039 	0 	0 	
0.535 129.421 	0 	0 	
0.545 130.71 	0 	0 	
0.555 131.543 	0 	0 	
0.565 129.774 	0 	0 	
0.575 118.073 	-1.37499e-30 	0 	
0.585 84.9262 	-1.88394e-31 	0 	
0.595 38.6674 	0 	0 	
0.605 7.86225 	0 	0 	
0.615 0.00377657 	0 	0 	
0.625 -9.25812e-14 	0 	0 	
0.635 -9.25813e-14 	0 	0 	
0.645 -3.08604e-14 	0 	0 	
0.655 6.61295e-15 	0 	0 	
0.665 -3.5269e-14 	0 	0 	
0.675 -5.06992e-14 	0 	0 	
0.685 1.54302e-14 	0 	0 	
0.695 6.39251e-14 	0 	0 	
0.705 4.1882e-14 	0 	0 	
0.715 2.64518e-14 	0 	0 	
0.725 7.71511e-14 	0 	0 	
0.735 1.23442e-13 	0 	0 	
0.745 9.0377e-14 	0 	0 	
0.755 2.42475e-14 	0 	0 	
0.765 -1.98388e-14 	0 	0 	
0.775 -3.74734e-14 	0 	0 	
0.785 -3.52691e-14 	0 	0 	
0.795 -4.1882e-14 	0 	0 	
0.805 -4.84949e-14 	0 	0 	
0.815 -2.86561e-14 	-4.89455e-31 	0 	
0.825 -6.61294e-15 	0 	0 	
0.835 8.81726e-15 	0 	0 	
0.845 2.64518e-14 	0 	0 	
0.855 4.62906e-14 	0 	0 	
0.865 6.61294e-14 	0 	0 	
0.875 4.1882e-14 	0 	0 	
0.885 -3.5269e-14 	0 	0 	
0.895 -7.49467e-14 	0 	0 	
0.905 -3.96777e-14 	0 	0 	
0.915 6.61295e-15 	0 	0 	
0.925 1.98388e-14 	0 	0 	
0.935 2.64518e-14 	0 	0 	
0.945 4.62906e-14 	0 	0 	
0.955 5.06993e-14 	0 	0 	
0.965 2.86561e-14 	0 	0 	
0.975 6.61295e-15 	0 	0 	
0.985 0 	0 	0 	
0.995 0 	0 	0 	
