0.005 -1.64736e-13 	0 	0 	
0.015 1.47395e-13 	0 	0 	
0.025 -6.93625e-14 	0 	0 	
0.035 4.68195e-14 	0 	0 	
0.045 1.26586e-13 	0 	0 	
0.055 -6.46059e-26 	0 	0 	
0.065 1.73402e-15 	0 	0 	
0.075 9.53733e-14 	0 	0 	
0.085 4.50854e-14 	2.06958e-29 	0 	
0.095 1.09246e-13 	0 	0 	
0.105 1.6647e-13 	0 	0 	
0.115 9.36391e-14 	-1.08292e-29 	0 	
0.125 1.04044e-13 	1.05886e-29 	0 	
0.135 9.36392e-14 	0 	0 	
0.145 2.25426e-14 	0 	0 	
0.155 1.00575e-13 	0 	0 	
0.165 1.83811e-13 	0 	0 	
0.175 1.12714e-13 	0 	0 	
0.185 2.01151e-13 	0 	0 	
0.195 -6.24262e-14 	0 	0 	
0.205 7.80328e-14 	0 	0 	
0.215 3.81494e-14 	0 	0 	
0.225 -1.21384e-13 	0 	0 	
0.235 -2.08088e-14 	0 	0 	
0.245 8.67031e-14 	0 	0 	
0.255 3.12131e-14 	0 	0 	
0.265 1.68204e-13 	0 	0 	
0.275 1.0426e-10 	0 	0 	
0.285 1.88706e-08 	0 	0 	
0.295 1.51971e-06 	0 	0 	
0.305 6.38366e-05 	0 	0 	
0.315 0.00150638 	0 	0 	
0.325 0.0208057 	0 	0 	
0.335 0.176074 	0 	0 	
0.345 0.950443 	0 	0 	
0.355 3.44025 	0 	0 	
0.365 8.94527 	0 	0 	
0.375 18.0824 	0 	0 	
0.385 30.5354 	0 	0 	
0.395 45.504 	0 	0 	
0.405 62.1286 	0 	0 	
0.415 79.5849 	0 	0 	
0.425 96.916 	0 	0 	
0.435 112.592 	0 	0 	
0.445 124.049 	0 	0 	
0.455 129.21 	0 	0 	
0.465 130.158 	0 	0 	
0.475 130.181 	0 	0 	
0.485 130.157 	0 	0 	
0.495 130.135 	0 	0 	
0.505 -654384 	0 	0 	
0.515 -4.3036e+15 	0 	0 	
0.525 -1.60692e+20 	0 	0 	
0.535 -2.23005e+24 	0 	0 	
0.545 -1.27179e+35 	0 	0 	
0.555 -2.64438e+44 	0 	0 	
0.565 -7.6819e+47 	0 	0 	
0.575 -1.59505e+51 	0 	0 	
0.585 1.55221e+51 	0 	0 	
0.595 2.51892e+56 	0 	0 	
0.605 5.57924e+62 	0 	0 	
0.615 1.72042e+62 	0 	0 	
0.625 6.82544e+58 	0 	0 	
0.635 4.47114e+51 	0 	0 	
0.645 2.52257e+46 	0 	0 	
0.655 2.48094e+31 	0 	0 	
0.665 1.65182e+27 	0 	0 	
0.675 8.84693e+20 	0 	0 	
0.685 2.11415e+09 	0 	0 	
0.695 0.00193424 	0 	0 	
0.705 2.90614e-05 	0 	0 	
0.715 2.59729e-07 	0 	0 	
0.725 1.10762e-09 	0 	0 	
0.735 1.6582e-12 	0 	0 	
0.745 8.97374e-14 	0 	0 	
0.755 5.85245e-14 	0 	0 	
0.765 1.22251e-13 	0 	0 	
0.775 9.75405e-14 	0 	0 	
0.785 1.40459e-13 	0 	0 	
0.795 -1.30055e-15 	0 	0 	
0.805 4.42183e-14 	0 	0 	
0.815 9.62403e-14 	0 	0 	
0.825 2.60106e-14 	0 	0 	
0.835 -2.47105e-14 	0 	0 	
0.845 2.08086e-14 	0 	0 	
0.855 5.9825e-14 	0 	0 	
0.865 -6.24262e-14 	0 	0 	
0.875 -9.75408e-14 	0 	0 	
0.885 1.95082e-13 	0 	0 	
0.895 1.95084e-14 	0 	0 	
0.905 -2.60109e-15 	0 	0 	
0.915 -1.4306e-14 	0 	0 	
0.925 5.20216e-14 	0 	0 	
0.935 -4.03167e-14 	0 	0 	
0.945 7.28306e-14 	0 	0 	
0.955 1.30051e-14 	0 	0 	
0.965 1.04043e-13 	0 	0 	
0.975 -1.95083e-14 	0 	0 	
0.985 -2.47105e-14 	0 	0 	
0.995 1.01442e-13 	0 	0 	
