0.005 0 	0 	0 	
0.015 0 	0 	0 	
0.025 0 	0 	0 	
0.035 0 	0 	0 	
0.045 8.81725e-15 	0 	0 	
0.055 2.35127e-14 	0 	0 	
0.065 5.87818e-15 	0 	0 	
0.075 -2.35127e-14 	0 	0 	
0.085 -1.46954e-14 	0 	0 	
0.095 0 	0 	0 	
0.105 5.87817e-15 	0 	0 	
0.115 2.35127e-14 	0 	0 	
0.125 2.93909e-14 	0 	0 	
0.135 2.92628e-25 	0 	0 	
0.145 -3.23299e-14 	-6.52608e-31 	0 	
0.155 -3.82081e-14 	0 	0 	
0.165 -3.5269e-14 	0 	0 	
0.175 -3.23299e-14 	0 	0 	
0.185 -1.17564e-14 	0 	0 	
0.195 2.64517e-14 	0 	0 	
0.205 4.11472e-14 	0 	0 	
0.215 2.05736e-14 	0 	0 	
0.225 7.30587e-26 	0 	0 	
0.235 -5.87815e-15 	6.52609e-31 	0 	
0.245 -5.87815e-15 	0 	0 	
0.255 2.49999e-20 	0 	0 	
0.265 8.81727e-15 	0 	0 	
0.275 5.87818e-15 	0 	0 	
0.285 0 	0 	0 	
0.295 0 	0 	0 	
0.305 0 	0 	0 	
0.315 0 	0 	0 	
0.325 5.87817e-15 	0 	0 	
0.335 3.82081e-14 	0 	0 	
0.345 2.18962e-12 	0 	0 	
0.355 1.00176e-10 	0 	0 	
0.365 2.94441e-09 	0 	0 	
0.375 6.24091e-08 	0 	0 	
0.385 1.01726e-06 	0 	0 	
0.395 1.32463e-05 	0 	0 	
0.405 0.000141066 	0 	0 	
0.415 0.00124613 	0 	0 	
0.425 0.00920006 	0 	0 	
0.435 0.0569012 	0 	0 	
0.445 0.294349 	0 	0 	
0.455 1.26923 	0 	0 	
0.465 4.55583 	0 	0 	
0.475 13.6863 	0 	0 	
0.485 34.7209 	0 	0 	
0.495 69.9043 	0 	0 	
0.505 93.5247 	0 	0 	
0.515 77.8608 	0 	0 	
0.525 42.6267 	0 	0 	
0.535 17.013 	0 	0 	
0.545 5.02506 	0 	0 	
0.555 1.1503 	0 	0 	
0.565 0.214697 	0 	0 	
0.575 0.033506 	0 	0 	
0.585 0.00440068 	0 	0 	
0.595 0.00048523 	0 	0 	
0.605 4.45367e-05 	0 	0 	
0.615 3.35207e-06 	0 	0 	
0.625 2.01955e-07 	0 	0 	
0.635 9.37046e-09 	0 	0 	
0.645 3.13865e-10 	0 	0 	
0.655 6.72095e-12 	0 	0 	
0.665 4.84949e-14 	0 	0 	
0.675 -1.32259e-14 	0 	0 	
0.685 -2.20432e-15 	0 	0 	
0.695 1.98388e-14 	0 	0 	
0.705 4.1882e-14 	0 	0 	
0.715 2.42475e-14 	0 	0 	
0.725 2.20432e-15 	0 	0 	
0.735 0 	0 	0 	
0.745 0 	0 	0 	
0.755 0 	0 	0 	
0.765 0 	0 	0 	
0.775 0 	0 	0 	
0.785 -1.32259e-14 	0 	0 	
0.795 -1.98389e-14 	0 	0 	
0.805 6.61295e-15 	0 	0 	
0.815 1.98389e-14 	-7.34184e-31 	0 	
0.825 6.61295e-15 	0 	0 	
0.835 0 	0 	0 	
0.845 0 	0 	0 	
0.855 -2.20431e-15 	0 	0 	
0.865 -1.10216e-14 	0 	0 	
0.875 -8.81727e-15 	0 	0 	
0.885 8.81726e-15 	0 	0 	
0.895 1.10216e-14 	0 	0 	
0.905 5.43285e-26 	0 	0 	
0.915 -1.54302e-14 	0 	0 	
0.925 -2.64518e-14 	0 	0 	
0.935 -2.20431e-15 	0 	0 	
0.945 2.64518e-14 	0 	0 	
0.955 1.76345e-14 	0 	0 	
0.965 2.20432e-15 	0 	0 	
0.975 0 	0 	0 	
0.985 0 	0 	0 	
0.995 0 	0 	0 	
