0.005 6.07704e-14 	0 	0 	
0.015 1.20502e-13 	0 	0 	
0.025 1.46954e-13 	0 	0 	
0.035 1.44015e-13 	0 	0 	
0.045 1.2932e-13 	0 	0 	
0.055 7.93553e-14 	0 	0 	
0.065 1.76346e-14 	0 	0 	
0.075 -1.46954e-14 	0 	0 	
0.085 -4.40863e-14 	0 	0 	
0.095 -9.40508e-14 	0 	0 	
0.105 -1.58711e-13 	0 	0 	
0.115 -1.9398e-13 	0 	0 	
0.125 -1.91041e-13 	0 	0 	
0.135 -2.02797e-13 	0 	0 	
0.145 -2.29249e-13 	-1.79468e-30 	0 	
0.155 -2.38066e-13 	1.63152e-30 	0 	
0.165 -2.38066e-13 	0 	0 	
0.175 -2.41005e-13 	0 	0 	
0.185 -2.02797e-13 	0 	0 	
0.195 -1.14624e-13 	0 	0 	
0.205 -2.64517e-14 	0 	0 	
0.215 3.5269e-14 	0 	0 	
0.225 8.22944e-14 	1.63152e-31 	0 	
0.235 1.08746e-13 	1.1747e-29 	0 	
0.245 1.02868e-13 	6.52609e-31 	0 	
0.255 9.99288e-14 	0 	0 	
0.265 9.99287e-14 	0 	0 	
0.275 9.40506e-14 	0 	0 	
0.285 1.11685e-13 	0 	0 	
0.295 1.32259e-13 	0 	0 	
0.305 1.17564e-13 	0 	0 	
0.315 8.52336e-14 	0 	0 	
0.325 4.40863e-14 	0 	0 	
0.335 -1.17563e-14 	0 	0 	
0.345 0.0546987 	0 	0 	
0.355 1.81875 	0 	0 	
0.365 8.56909 	0 	0 	
0.375 21.0433 	0 	0 	
0.385 36.8258 	0 	0 	
0.395 53.839 	0 	0 	
0.405 71.0993 	0 	0 	
0.415 87.7873 	0 	0 	
0.425 102.91 	0 	0 	
0.435 115.274 	0 	0 	
0.445 123.874 	0 	0 	
0.455 128.297 	0 	0 	
0.465 129.582 	0 	0 	
0.475 129.876 	0 	0 	
0.485 130.178 	0 	0 	
0.495 130.346 	0 	0 	
0.505 130.284 	0 	0 	
0.515 130.05 	0 	0 	
0.525 129.871 	0 	0 	
0.535 129.933 	0 	0 	
0.545 130.225 	0 	0 	
0.555 130.535 	0 	0 	
0.565 130.662 	0 	0 	
0.575 130.562 	-2.66402e-30 	0 	
0.585 130.214 	-1.8599e-30 	0 	
0.595 129.765 	0 	0 	
0.605 129.506 	0 	0 	
0.615 129.46 	0 	0 	
0.625 129.455 	0 	0 	
0.635 128.917 	0 	0 	
0.645 124.62 	0 	0 	
0.655 106.22 	0 	0 	
0.665 66.4988 	0 	0 	
0.675 24.1813 	0 	0 	
0.685 3.47958 	0 	0 	
0.695 5.51079e-14 	0 	0 	
0.705 1.54302e-14 	0 	0 	
0.715 4.40862e-15 	0 	0 	
0.725 2.64518e-14 	0 	0 	
0.735 5.95165e-14 	0 	0 	
0.745 6.61294e-14 	0 	0 	
0.755 4.40863e-14 	0 	0 	
0.765 3.08604e-14 	0 	0 	
0.775 3.74733e-14 	0 	0 	
0.785 3.96777e-14 	0 	0 	
0.795 2.20432e-14 	0 	0 	
0.805 8.81725e-15 	0 	0 	
0.815 1.10216e-14 	-9.29967e-30 	0 	
0.825 8.81726e-15 	0 	0 	
0.835 2.20432e-15 	0 	0 	
0.845 -8.81725e-15 	0 	0 	
0.855 -2.64517e-14 	0 	0 	
0.865 -3.5269e-14 	0 	0 	
0.875 -5.29035e-14 	0 	0 	
0.885 -7.71509e-14 	0 	0 	
0.895 -6.61294e-14 	0 	0 	
0.905 -2.86561e-14 	0 	0 	
0.915 -2.20432e-15 	0 	0 	
0.925 -2.20432e-15 	0 	0 	
0.935 4.40863e-15 	0 	0 	
0.945 5.06993e-14 	0 	0 	
0.955 1.05807e-13 	0 	0 	
0.965 1.27851e-13 	0 	0 	
0.975 1.19033e-13 	0 	0 	
0.985 9.91942e-14 	0 	0 	
0.995 6.7281e-14 	0 	0 	
