0.005 -3.21675e-06 	0 	0 	
0.015 -4.86905e-07 	0 	0 	
0.025 -4.2785e-07 	0 	0 	
0.035 1.73376e-06 	0 	0 	
0.045 -1.24549e-06 	0 	0 	
0.055 -4.27388e-06 	0 	0 	
0.065 2.02495e-07 	0 	0 	
0.075 -1.77243e-06 	0 	0 	
0.085 -1.40221e-06 	0 	0 	
0.095 1.17988e-06 	0 	0 	
0.105 -3.7161e-07 	0 	0 	
0.115 -3.1176e-06 	0 	0 	
0.125 -5.326e-07 	0 	0 	
0.135 3.32383e-06 	0 	0 	
0.145 -2.27149e-06 	0 	0 	
0.155 3.1725e-07 	0 	0 	
0.165 1.1782e-06 	0 	0 	
0.175 1.2868e-07 	0 	0 	
0.185 1.67575e-06 	0 	0 	
0.195 -2.44699e-06 	0 	0 	
0.205 1.3504e-06 	0 	0 	
0.215 -3.17523e-06 	0 	0 	
0.225 -2.31273e-06 	0 	0 	
0.235 2.01575e-06 	0 	0 	
0.245 -5.5452e-07 	0 	0 	
0.255 -1.2279e-06 	0 	0 	
0.265 -9.65732e-07 	0 	0 	
0.275 5.43365e-07 	0 	0 	
0.285 -3.28035e-06 	0 	0 	
0.295 2.2904e-07 	0 	0 	
0.305 -8.97e-09 	0 	0 	
0.315 -1.15645e-06 	0 	0 	
0.325 9.905e-08 	0 	0 	
0.335 -9.418e-07 	0 	0 	
0.345 -1.2279e-06 	0 	0 	
0.355 2.1818e-06 	0 	0 	
0.365 2.10065e-06 	0 	0 	
0.375 -7.0145e-07 	0 	0 	
0.385 -1.9776e-06 	0 	0 	
0.395 1.8289e-07 	0 	0 	
0.405 -1.4365e-06 	0 	0 	
0.415 4.6305e-07 	0 	0 	
0.425 3.67855e-06 	0 	0 	
0.435 -2.53886e-06 	0 	0 	
0.445 3.4405e-07 	0 	0 	
0.455 -3.435e-08 	0 	0 	
0.465 -1.31159e+08 	0 	0 	
0.475 -2.06354e+16 	0 	0 	
0.485 -1.59325e+28 	0 	0 	
0.495 -1.12823e+37 	0 	0 	
0.505 -7.2114e+43 	0 	0 	
0.515 2.05993e+36 	0 	0 	
0.525 3.77813e+23 	0 	0 	
0.535 3.40595e+13 	0 	0 	
0.545 1.17814e-06 	0 	0 	
0.555 4.5554e-06 	0 	0 	
0.565 9.60775e-07 	0 	0 	
0.575 6.1885e-07 	0 	0 	
0.585 -2.6892e-06 	0 	0 	
0.595 -1.4175e-07 	0 	0 	
0.605 2.40227e-06 	0 	0 	
0.615 -8.304e-07 	0 	0 	
0.625 2.10185e-07 	0 	0 	
0.635 -3.89178e-06 	0 	0 	
0.645 6.31965e-07 	0 	0 	
0.655 1.0137e-06 	0 	0 	
0.665 3.06695e-06 	0 	0 	
0.675 6.8029e-07 	0 	0 	
0.685 2.2738e-06 	0 	0 	
0.695 -2.78723e-06 	0 	0 	
0.705 -1.81615e-06 	0 	0 	
0.715 6.27385e-07 	0 	0 	
0.725 1.70946e-06 	0 	0 	
0.735 8.0207e-07 	0 	0 	
0.745 -9.5071e-07 	0 	0 	
0.755 -3.38595e-06 	0 	0 	
0.765 -1.3895e-07 	0 	0 	
0.775 1.76621e-06 	0 	0 	
0.785 -1.19193e-06 	0 	0 	
0.795 1.82567e-06 	0 	0 	
0.805 6.8645e-07 	0 	0 	
0.815 -2.4335e-07 	0 	0 	
0.825 2.29895e-06 	0 	0 	
0.835 -4.26475e-06 	0 	0 	
0.845 1.73308e-06 	0 	0 	
0.855 -1.04995e-07 	0 	0 	
0.865 -1.74032e-06 	0 	0 	
0.875 -6.701e-07 	0 	0 	
0.885 2.5023e-06 	0 	0 	
0.895 -2.4981e-06 	0 	0 	
0.905 4.06021e-06 	0 	0 	
0.915 -4.543e-07 	0 	0 	
0.925 -1.0334e-06 	0 	0 	
0.935 -1.617e-06 	0 	0 	
0.945 4.8687e-07 	0 	0 	
0.955 1.28722e-06 	0 	0 	
0.965 -1.8515e-06 	0 	0 	
0.975 3.8105e-07 	0 	0 	
0.985 9.19135e-07 	0 	0 	
0.995 -5.8733e-07 	0 	0 	
