0.005 5.19339e-14 	0 	0 	
0.015 -1.50775e-13 	0 	0 	
0.025 1.1727e-13 	0 	0 	
0.035 -7.70627e-14 	0 	0 	
0.045 -4.35574e-14 	0 	0 	
0.055 5.52841e-14 	0 	0 	
0.065 9.38158e-14 	0 	0 	
0.075 -8.37643e-15 	0 	0 	
0.085 -7.20373e-14 	0 	0 	
0.095 1.18945e-13 	0 	0 	
0.105 -2.84797e-14 	0 	0 	
0.115 3.68561e-14 	0 	0 	
0.125 1.67528e-13 	0 	0 	
0.135 -3.51807e-14 	0 	0 	
0.145 -2.68046e-14 	0 	0 	
0.155 -1.18945e-13 	0 	0 	
0.165 9.04649e-14 	0 	0 	
0.175 5.02586e-14 	0 	0 	
0.185 -2.04384e-13 	0 	0 	
0.195 2.22812e-13 	0 	0 	
0.205 6.53361e-14 	0 	0 	
0.215 -8.87901e-14 	0 	0 	
0.225 -2.51294e-14 	0 	0 	
0.235 -9.04653e-14 	0 	0 	
0.245 -6.70115e-14 	0 	0 	
0.255 -9.71661e-14 	0 	0 	
0.265 -9.38155e-14 	0 	0 	
0.275 -6.70114e-14 	0 	0 	
0.285 3.35056e-14 	0 	0 	
0.295 6.03102e-14 	0 	0 	
0.305 6.53361e-14 	0 	0 	
0.315 -3.6856e-14 	0 	0 	
0.325 1.67529e-14 	0 	0 	
0.335 -2.68044e-14 	0 	0 	
0.345 -1.54126e-13 	0 	0 	
0.355 6.53361e-14 	0 	0 	
0.365 3.51807e-14 	0 	0 	
0.375 6.70111e-14 	0 	0 	
0.385 -1.84281e-14 	0 	0 	
0.395 1.84279e-14 	0 	0 	
0.405 1.50776e-14 	0 	0 	
0.415 -1.00515e-14 	0 	0 	
0.425 8.37637e-15 	0 	0 	
0.435 -3.51808e-14 	0 	0 	
0.445 0.000405568 	0 	0 	
0.455 0.237838 	0 	0 	
0.465 5.83461 	0 	0 	
0.475 33.1366 	0 	0 	
0.485 85.5063 	0 	0 	
0.495 127.471 	0 	0 	
0.505 130.185 	0 	0 	
0.515 129.892 	0 	0 	
0.525 123.222 	0 	0 	
0.535 65.7129 	0 	0 	
0.545 2.55718 	0 	0 	
0.555 0.00233281 	0 	0 	
0.565 2.13599e-14 	0 	0 	
0.575 -1.06799e-13 	0 	0 	
0.585 -1.25644e-14 	0 	0 	
0.595 1.38211e-14 	0 	0 	
0.605 1.13082e-14 	0 	0 	
0.615 8.79538e-15 	0 	0 	
0.625 4.39759e-14 	0 	0 	
0.635 4.64891e-14 	0 	0 	
0.645 7.53902e-15 	0 	0 	
0.655 7.66442e-14 	0 	0 	
0.665 6.65923e-14 	0 	0 	
0.675 -7.53878e-14 	0 	0 	
0.685 -2.51298e-15 	0 	0 	
0.695 4.27196e-14 	0 	0 	
0.705 -1.06799e-13 	0 	0 	
0.715 -7.79006e-14 	0 	0 	
0.725 -1.06799e-13 	0 	0 	
0.735 4.77454e-14 	0 	0 	
0.745 -1.25643e-15 	0 	0 	
0.755 2.136e-14 	0 	0 	
0.765 -2.51295e-14 	0 	0 	
0.775 -2.51293e-14 	0 	0 	
0.785 7.0362e-14 	0 	0 	
0.795 -1.13082e-13 	0 	0 	
0.805 -1.38213e-14 	0 	0 	
0.815 6.91052e-14 	0 	0 	
0.825 -6.28268e-15 	0 	0 	
0.835 -2.01034e-14 	0 	0 	
0.845 -5.15148e-14 	0 	0 	
0.855 -5.02615e-15 	0 	0 	
0.865 -2.13598e-14 	0 	0 	
0.875 5.65406e-14 	0 	0 	
0.885 -1.25633e-15 	0 	0 	
0.895 9.2978e-14 	0 	0 	
0.905 5.02583e-14 	0 	0 	
0.915 1.25646e-14 	0 	0 	
0.925 -7.53875e-14 	0 	0 	
0.935 -1.21877e-13 	0 	0 	
0.945 -4.64889e-14 	0 	0 	
0.955 1.54251e-25 	0 	0 	
0.965 -7.16181e-14 	0 	0 	
0.975 2.51292e-14 	0 	0 	
0.985 -3.01551e-14 	0 	0 	
0.995 3.51805e-14 	0 	0 	
