0.005 3.46812e-14 	0 	0 	
0.015 8.6704e-15 	0 	0 	
0.025 3.46813e-14 	0 	0 	
0.035 4.33514e-14 	0 	0 	
0.045 9.71074e-14 	0 	0 	
0.055 5.72241e-14 	0 	0 	
0.065 8.15005e-14 	0 	0 	
0.075 -8.6705e-15 	0 	0 	
0.085 3.98832e-14 	1.44389e-30 	0 	
0.095 4.16177e-14 	0 	0 	
0.105 8.67031e-15 	0 	0 	
0.115 -1.38723e-14 	-7.21947e-31 	0 	
0.125 7.80326e-14 	4.81299e-31 	0 	
0.135 1.04044e-14 	0 	0 	
0.145 -3.46815e-14 	0 	0 	
0.155 4.50856e-14 	0 	0 	
0.165 8.15009e-14 	0 	0 	
0.175 -6.06921e-14 	0 	0 	
0.185 6.93623e-14 	0 	0 	
0.195 -6.0692e-14 	0 	0 	
0.205 -6.06922e-14 	0 	0 	
0.215 3.29472e-14 	0 	0 	
0.225 -1.73406e-14 	0 	0 	
0.235 5.87647e-25 	0 	0 	
0.245 6.24263e-14 	0 	0 	
0.255 1.14448e-13 	0 	0 	
0.265 -2.7745e-14 	0 	0 	
0.275 -8.67031e-14 	0 	0 	
0.285 1.0231e-13 	0 	0 	
0.295 -2.3063e-13 	0 	0 	
0.305 -8.84374e-14 	0 	0 	
0.315 -1.56066e-13 	0 	0 	
0.325 8.67017e-15 	0 	0 	
0.335 4.85537e-14 	0 	0 	
0.345 7.28304e-14 	0 	0 	
0.355 -3.64152e-14 	0 	0 	
0.365 2.42768e-14 	0 	0 	
0.375 -1.73406e-14 	0 	0 	
0.385 2.94788e-14 	0 	0 	
0.395 1.56065e-13 	0 	0 	
0.405 -1.30055e-13 	0 	0 	
0.415 -4.50859e-14 	0 	0 	
0.425 -1.73406e-14 	0 	0 	
0.435 4.50856e-14 	0 	0 	
0.445 -5.0288e-14 	0 	0 	
0.455 -9.19049e-14 	0 	0 	
0.465 -1.21384e-13 	0 	0 	
0.475 -6.06922e-14 	0 	0 	
0.485 0.266948 	0 	0 	
0.495 52.5679 	0 	0 	
0.505 109.655 	0 	0 	
0.515 1.17682 	0 	0 	
0.525 -4.99962e-20 	0 	0 	
0.535 3.51148e-14 	0 	0 	
0.545 7.41313e-14 	0 	0 	
0.555 -5.85245e-14 	0 	0 	
0.565 7.8033e-15 	0 	0 	
0.575 -3.90166e-14 	0 	0 	
0.585 -7.80323e-15 	0 	0 	
0.595 9.49396e-14 	0 	0 	
0.605 -1.00142e-13 	0 	0 	
0.615 -4.81203e-14 	0 	0 	
0.625 3.25137e-14 	0 	0 	
0.635 6.50273e-14 	0 	0 	
0.645 -2.60109e-14 	0 	0 	
0.655 2.60132e-15 	0 	0 	
0.665 1.09246e-13 	0 	0 	
0.675 1.10546e-13 	0 	0 	
0.685 1.04044e-14 	0 	0 	
0.695 -1.40459e-13 	0 	0 	
0.705 5.07213e-14 	0 	0 	
0.715 -1.56065e-14 	0 	0 	
0.725 2.60111e-14 	0 	0 	
0.735 6.50293e-15 	0 	0 	
0.745 4.03168e-14 	0 	0 	
0.755 8.5836e-14 	0 	0 	
0.765 -3.25138e-14 	0 	0 	
0.775 -4.55194e-14 	0 	0 	
0.785 3.77159e-14 	0 	0 	
0.795 -2.8612e-14 	0 	0 	
0.805 -5.07213e-14 	0 	0 	
0.815 -4.42183e-14 	0 	0 	
0.825 6.5025e-15 	0 	0 	
0.835 -2.47102e-14 	0 	0 	
0.845 -9.88413e-14 	0 	0 	
0.855 7.80325e-15 	0 	0 	
0.865 -1.30054e-14 	0 	0 	
0.875 1.04043e-13 	0 	0 	
0.885 8.97374e-14 	0 	0 	
0.895 3.9016e-14 	0 	0 	
0.905 1.30055e-15 	0 	0 	
0.915 -1.82078e-14 	0 	0 	
0.925 -5.20215e-14 	0 	0 	
0.935 7.54315e-14 	0 	0 	
0.945 -4.68195e-14 	0 	0 	
0.955 1.17049e-14 	0 	0 	
0.965 2.86119e-14 	0 	0 	
0.975 -5.20216e-14 	0 	0 	
0.985 3.64155e-14 	0 	0 	
0.995 -1.02743e-13 	0 	0 	
