0.005 1.46953e-14 	0 	0 	
0.015 -5.87816e-14 	0 	0 	
0.025 6.52608e-30 	0 	0 	
0.035 3.65561e-24 	0 	0 	
0.045 -1.46954e-13 	0 	0 	
0.055 -2.93907e-14 	0 	0 	
0.065 1.75002e-19 	0 	0 	
0.075 1.46953e-14 	0 	0 	
0.085 -1.46954e-14 	0 	0 	
0.095 -8.81725e-14 	0 	0 	
0.105 1.46954e-14 	0 	0 	
0.115 -7.3477e-14 	0 	0 	
0.125 -1.46952e-14 	0 	0 	
0.135 1.02868e-13 	0 	0 	
0.145 1.6165e-13 	0 	0 	
0.155 1.91041e-13 	0 	0 	
0.165 2.05736e-13 	0 	0 	
0.175 1.76345e-13 	0 	0 	
0.185 8.81722e-14 	0 	0 	
0.195 1.46955e-14 	0 	0 	
0.205 -7.34772e-14 	0 	0 	
0.215 -4.40864e-14 	0 	0 	
0.225 -4.40863e-14 	0 	0 	
0.235 -7.34771e-14 	0 	0 	
0.245 -8.81723e-14 	0 	0 	
0.255 -1.17564e-13 	0 	0 	
0.265 -1.46954e-13 	0 	0 	
0.275 -1.6165e-13 	0 	0 	
0.285 -1.6165e-13 	0 	0 	
0.295 -8.81727e-14 	0 	0 	
0.305 4.40863e-14 	0 	0 	
0.315 1.46955e-14 	0 	0 	
0.325 1.91041e-13 	0 	0 	
0.335 1.17564e-13 	0 	0 	
0.345 1.6165e-13 	0 	0 	
0.355 1.14624e-12 	0 	0 	
0.365 4.13016e-09 	0 	0 	
0.375 1.74843e-06 	0 	0 	
0.385 0.000196108 	0 	0 	
0.395 0.00814824 	0 	0 	
0.405 0.148536 	0 	0 	
0.415 1.31891 	0 	0 	
0.425 6.31892 	0 	0 	
0.435 18.696 	0 	0 	
0.445 39.4856 	0 	0 	
0.455 66.6824 	0 	0 	
0.465 96.1766 	0 	0 	
0.475 120.218 	0 	0 	
0.485 129.538 	0 	0 	
0.495 130.212 	0 	0 	
0.505 130.176 	0 	0 	
0.515 130.146 	0 	0 	
0.525 130.119 	0 	0 	
0.535 130.094 	0 	0 	
0.545 130.047 	0 	0 	
0.555 129.635 	0 	0 	
0.565 125.811 	0 	0 	
0.575 103.468 	0 	0 	
0.585 40.5924 	0 	0 	
0.595 3.52062 	0 	0 	
0.605 0.117306 	0 	0 	
0.615 0.00194363 	0 	0 	
0.625 1.31419e-05 	0 	0 	
0.635 2.48599e-08 	0 	0 	
0.645 5.47773e-12 	0 	0 	
0.655 2.20431e-14 	0 	0 	
0.665 3.30647e-14 	0 	0 	
0.675 5.51078e-14 	0 	0 	
0.685 7.71508e-14 	0 	0 	
0.695 -1.26218e-29 	0 	0 	
0.705 -2.20431e-14 	0 	0 	
0.715 3.30647e-14 	0 	0 	
0.725 -2.20432e-14 	0 	0 	
0.735 -1.4328e-13 	0 	0 	
0.745 -1.21237e-13 	0 	0 	
0.755 -5.51079e-14 	0 	0 	
0.765 -7.7151e-14 	0 	0 	
0.775 -1.10216e-13 	0 	0 	
0.785 -7.7151e-14 	0 	0 	
0.795 -5.51079e-14 	0 	0 	
0.805 2.20431e-14 	0 	0 	
0.815 -2.20432e-14 	0 	0 	
0.825 7.71508e-14 	0 	0 	
0.835 1.21237e-13 	0 	0 	
0.845 6.61295e-14 	0 	0 	
0.855 7.71509e-14 	0 	0 	
0.865 4.40863e-14 	0 	0 	
0.875 1.10216e-14 	0 	0 	
0.885 -1.00001e-19 	0 	0 	
0.895 1.10216e-14 	0 	0 	
0.905 -3.30646e-14 	0 	0 	
0.915 -1.10216e-14 	0 	0 	
0.925 -7.71511e-14 	0 	0 	
0.935 2.20432e-14 	0 	0 	
0.945 1.10216e-14 	0 	0 	
0.955 3.30647e-14 	0 	0 	
0.965 1.21237e-13 	0 	0 	
0.975 8.81726e-14 	0 	0 	
0.985 5.51077e-14 	0 	0 	
0.995 3.30646e-14 	0 	0 	
