0.005 0 	0 	0 	
0.015 0 	0 	0 	
0.025 0 	0 	0 	
0.035 0 	0 	0 	
0.045 0 	0 	0 	
0.055 5.87817e-15 	0 	0 	
0.065 1.17563e-14 	0 	0 	
0.075 -5.87817e-15 	0 	0 	
0.085 -1.76345e-14 	0 	0 	
0.095 -1.46254e-25 	0 	0 	
0.105 5.87818e-15 	0 	0 	
0.115 0 	0 	0 	
0.125 5.87817e-15 	0 	0 	
0.135 1.17563e-14 	0 	0 	
0.145 -2.93907e-15 	-3.26305e-31 	0 	
0.155 -2.05736e-14 	0 	0 	
0.165 -2.05736e-14 	0 	0 	
0.175 -1.17564e-14 	0 	0 	
0.185 2.93905e-15 	0 	0 	
0.195 1.46954e-14 	0 	0 	
0.205 1.46954e-14 	0 	0 	
0.215 5.87818e-15 	0 	0 	
0.225 -2.93907e-15 	0 	0 	
0.235 -5.87815e-15 	6.52609e-31 	0 	
0.245 -5.87815e-15 	0 	0 	
0.255 2.49999e-20 	0 	0 	
0.265 8.81727e-15 	0 	0 	
0.275 5.87818e-15 	0 	0 	
0.285 0 	0 	0 	
0.295 0 	0 	0 	
0.305 0 	0 	0 	
0.315 -2.93907e-15 	0 	0 	
0.325 2.9391e-15 	0 	0 	
0.335 8.81725e-15 	0 	0 	
0.345 -2.9391e-15 	0 	0 	
0.355 -5.87818e-15 	0 	0 	
0.365 0 	0 	0 	
0.375 0 	0 	0 	
0.385 -2.93907e-15 	0 	0 	
0.395 -8.81722e-15 	0 	0 	
0.405 -2.93905e-15 	0 	0 	
0.415 8.81727e-15 	0 	0 	
0.425 5.87818e-15 	0 	0 	
0.435 0 	0 	0 	
0.445 0 	0 	0 	
0.455 0 	0 	0 	
0.465 0 	0 	0 	
0.475 0.96498 	0 	0 	
0.485 15.0774 	0 	0 	
0.495 52.7109 	0 	0 	
0.505 70.5221 	0 	0 	
0.515 38.3962 	0 	0 	
0.525 6.4726 	0 	0 	
0.535 6.61295e-15 	0 	0 	
0.545 0 	0 	0 	
0.555 0 	0 	0 	
0.565 -4.40862e-15 	0 	0 	
0.575 -4.40863e-15 	0 	0 	
0.585 4.40862e-15 	0 	0 	
0.595 4.40863e-15 	0 	0 	
0.605 -4.40862e-15 	0 	0 	
0.615 -4.40863e-15 	0 	0 	
0.625 3.91565e-30 	0 	0 	
0.635 -4.40862e-15 	0 	0 	
0.645 -1.09051e-25 	0 	0 	
0.655 8.81725e-15 	0 	0 	
0.665 -8.81727e-15 	0 	0 	
0.675 -2.64518e-14 	0 	0 	
0.685 -6.61295e-15 	0 	0 	
0.695 1.98388e-14 	0 	0 	
0.705 1.98389e-14 	0 	0 	
0.715 6.61295e-15 	0 	0 	
0.725 0 	0 	0 	
0.735 0 	0 	0 	
0.745 0 	0 	0 	
0.755 0 	0 	0 	
0.765 0 	0 	0 	
0.775 -2.20431e-15 	0 	0 	
0.785 -1.54302e-14 	0 	0 	
0.795 -1.98388e-14 	0 	0 	
0.805 4.40862e-15 	0 	0 	
0.815 1.98388e-14 	-4.89455e-31 	0 	
0.825 1.10216e-14 	0 	0 	
0.835 2.20432e-15 	0 	0 	
0.845 0 	0 	0 	
0.855 0 	0 	0 	
0.865 -4.40862e-15 	0 	0 	
0.875 -4.40863e-15 	0 	0 	
0.885 4.40862e-15 	0 	0 	
0.895 4.40863e-15 	0 	0 	
0.905 0 	0 	0 	
0.915 -6.61295e-15 	0 	0 	
0.925 -1.32259e-14 	0 	0 	
0.935 -1.62845e-25 	0 	0 	
0.945 1.32259e-14 	0 	0 	
0.955 6.61295e-15 	0 	0 	
0.965 0 	0 	0 	
0.975 0 	0 	0 	
0.985 0 	0 	0 	
0.995 0 	0 	0 	
