0.005 6.47773e-14 	0 	0 	
0.015 2.04561e-14 	0 	0 	
0.025 3.40934e-14 	0 	0 	
0.035 -4.77308e-14 	0 	0 	
0.045 1.70463e-14 	0 	0 	
0.055 -5.7959e-14 	0 	0 	
0.065 -1.36374e-14 	0 	0 	
0.075 -3.40935e-14 	0 	0 	
0.085 -6.81862e-15 	0 	0 	
0.095 -1.70469e-14 	0 	0 	
0.105 -8.86427e-14 	0 	0 	
0.115 -5.7959e-14 	0 	0 	
0.125 1.70465e-14 	0 	0 	
0.135 -5.79589e-14 	0 	0 	
0.145 9.8871e-14 	0 	0 	
0.155 -1.12508e-13 	0 	0 	
0.165 -3.0684e-14 	0 	0 	
0.175 -1.0228e-13 	0 	0 	
0.185 1.26146e-13 	-6.62397e-30 	0 	
0.195 9.54617e-14 	0 	0 	
0.205 1.60239e-13 	0 	0 	
0.215 9.8871e-14 	0 	0 	
0.225 1.19327e-13 	0 	0 	
0.235 2.0456e-14 	0 	0 	
0.245 1.32964e-13 	0 	0 	
0.255 7.15959e-14 	-6.86053e-30 	0 	
0.265 4.77308e-14 	-3.1937e-30 	0 	
0.275 8.52333e-14 	0 	0 	
0.285 -6.81885e-15 	0 	0 	
0.295 3.40934e-15 	0 	0 	
0.305 -3.75029e-14 	0 	0 	
0.315 -9.54618e-14 	0 	0 	
0.325 -8.52337e-14 	0 	0 	
0.335 1.0228e-13 	0 	0 	
0.345 2.21266e-12 	0 	0 	
0.355 1.37253e-08 	-2.83885e-30 	0 	
0.365 6.36421e-06 	0 	0 	
0.375 0.000637366 	0 	0 	
0.385 0.0217434 	0 	0 	
0.395 0.314579 	0 	0 	
0.405 2.23066 	0 	0 	
0.415 8.75981 	0 	0 	
0.425 22.247 	0 	0 	
0.435 42.3693 	0 	0 	
0.445 67.0221 	0 	0 	
0.455 93.2736 	0 	0 	
0.465 116.213 	0 	0 	
0.475 128.274 	0 	0 	
0.485 130.185 	0 	0 	
0.495 130.185 	7.14286e-31 	0 	
0.505 130.156 	0 	0 	
0.515 130.134 	0 	0 	
0.525 130.116 	0 	0 	
0.535 130.099 	0 	0 	
0.545 130.081 	0 	0 	
0.555 130.059 	0 	0 	
0.565 129.97 	0 	0 	
0.575 128.868 	0 	0 	
0.585 127.621 	0 	0 	
0.595 92.7746 	0 	0 	
0.605 17.4058 	0 	0 	
0.615 0.642818 	0 	0 	
0.625 0.0104743 	0 	0 	
0.635 6.85765e-05 	0 	0 	
0.645 1.0683e-07 	0 	0 	
0.655 1.26802e-11 	0 	0 	
0.665 -1.5342e-14 	0 	0 	
0.675 4.54663e-24 	0 	0 	
0.685 -3.3241e-14 	0 	0 	
0.695 6.64825e-14 	0 	0 	
0.705 -2.55701e-15 	0 	0 	
0.715 -1.27848e-14 	0 	0 	
0.725 -3.66514e-24 	0 	0 	
0.735 1.25293e-13 	0 	0 	
0.745 1.22736e-13 	0 	0 	
0.755 7.4153e-14 	0 	0 	
0.765 9.71662e-14 	0 	0 	
0.775 2.75005e-19 	0 	0 	
0.785 -2.8127e-14 	0 	0 	
0.795 7.92674e-14 	0 	0 	
0.805 -4.34691e-14 	0 	0 	
0.815 3.3241e-14 	0 	0 	
0.825 6.39252e-14 	0 	0 	
0.835 1.7899e-14 	0 	0 	
0.845 4.85834e-14 	0 	0 	
0.855 1.43192e-13 	0 	0 	
0.865 -8.1824e-14 	0 	0 	
0.875 -8.9495e-14 	0 	0 	
0.885 -8.6938e-14 	0 	0 	
0.895 -1.7899e-14 	0 	0 	
0.905 5.36975e-14 	0 	0 	
0.915 1.0228e-13 	0 	0 	
0.925 -7.671e-14 	0 	0 	
0.935 2.557e-14 	0 	0 	
0.945 8.94954e-14 	0 	0 	
0.955 2.8127e-14 	0 	0 	
0.965 1.7899e-14 	0 	0 	
0.975 6.3925e-14 	0 	0 	
0.985 -3.5798e-14 	0 	0 	
0.995 7.15965e-14 	0 	0 	
