0.005 -0.004171 	0 	0 	
0.015 -0.00171925 	0 	0 	
0.025 0.00388555 	0 	0 	
0.035 0.00087085 	0 	0 	
0.045 0.0061861 	0 	0 	
0.055 -0.0126283 	0 	0 	
0.065 0.00490585 	0 	0 	
0.075 -0.003006 	0 	0 	
0.085 0.0124448 	0 	0 	
0.095 0.00036438 	0 	0 	
0.105 -0.00452275 	0 	0 	
0.115 0.0059139 	0 	0 	
0.125 -0.00012865 	0 	0 	
0.135 0.018191 	0 	0 	
0.145 -0.0108523 	0 	0 	
0.155 -0.00270537 	0 	0 	
0.165 0.00749234 	0 	0 	
0.175 -0.0057022 	0 	0 	
0.185 -0.00227785 	0 	0 	
0.195 -6.66e-05 	0 	0 	
0.205 0.0047248 	0 	0 	
0.215 -0.00671825 	0 	0 	
0.225 0.00776835 	0 	0 	
0.235 -0.0022309 	0 	0 	
0.245 -0.0040355 	0 	0 	
0.255 0.00509165 	0 	0 	
0.265 0.00279245 	0 	0 	
0.275 0.00749655 	0 	0 	
0.285 -0.00241355 	0 	0 	
0.295 0.0043239 	0 	0 	
0.305 0.0166566 	0 	0 	
0.315 -0.00033195 	0 	0 	
0.325 0.004688 	0 	0 	
0.335 -0.00180355 	0 	0 	
0.345 -0.002517 	0 	0 	
0.355 -0.001432 	0 	0 	
0.365 0.0015719 	0 	0 	
0.375 -0.00238805 	0 	0 	
0.385 -0.0086252 	0 	0 	
0.395 0.0088463 	0 	0 	
0.405 -0.0164898 	0 	0 	
0.415 0.0067443 	0 	0 	
0.425 -0.00282985 	0 	0 	
0.435 -0.00703605 	0 	0 	
0.445 -1.72689e+12 	0 	0 	
0.455 -4.79404e+17 	0 	0 	
0.465 -5.91479e+28 	0 	0 	
0.475 -3.01651e+38 	0 	0 	
0.485 -9.92903e+47 	0 	0 	
0.495 -7.03807e+58 	0 	0 	
0.505 -1.26364e+60 	0 	0 	
0.515 7.47815e+59 	0 	0 	
0.525 4.58634e+48 	0 	0 	
0.535 4.18307e+36 	0 	0 	
0.545 1.88292e+25 	0 	0 	
0.555 2.51153e+14 	0 	0 	
0.565 0.00172144 	0 	0 	
0.575 -0.00279995 	0 	0 	
0.585 0.00502445 	0 	0 	
0.595 0.00138165 	0 	0 	
0.605 0.00248721 	0 	0 	
0.615 0.00178415 	0 	0 	
0.625 0.0120105 	0 	0 	
0.635 -0.0058044 	0 	0 	
0.645 -0.00281985 	0 	0 	
0.655 -0.0102672 	0 	0 	
0.665 -0.00372075 	0 	0 	
0.675 0.0028809 	0 	0 	
0.685 0.00023915 	0 	0 	
0.695 -0.00708393 	0 	0 	
0.705 -3e-05 	0 	0 	
0.715 0.00894495 	0 	0 	
0.725 0.000241 	0 	0 	
0.735 -0.00367905 	0 	0 	
0.745 -0.00635475 	0 	0 	
0.755 0.0117402 	0 	0 	
0.765 -0.010915 	0 	0 	
0.775 0.002008 	0 	0 	
0.785 0.0009795 	0 	0 	
0.795 0.0005619 	0 	0 	
0.805 0.0019818 	0 	0 	
0.815 0.000536 	0 	0 	
0.825 -0.00026832 	0 	0 	
0.835 0.00041685 	0 	0 	
0.845 -0.00629915 	0 	0 	
0.855 0.00700424 	0 	0 	
0.865 0.00516815 	0 	0 	
0.875 -0.0116293 	0 	0 	
0.885 -0.0006505 	0 	0 	
0.895 -0.0044398 	0 	0 	
0.905 -0.00015295 	0 	0 	
0.915 0.0103508 	0 	0 	
0.925 0.0045631 	0 	0 	
0.935 0.00039085 	0 	0 	
0.945 -0.00203215 	0 	0 	
0.955 -0.0093771 	0 	0 	
0.965 0.00029565 	0 	0 	
0.975 0.00912755 	0 	0 	
0.985 -0.00680145 	0 	0 	
0.995 -0.0006799 	0 	0 	
