0.005 733090 	-4.73358e-31 	0 	
0.015 -29271.3 	0 	0 	
0.025 -200178 	0 	0 	
0.035 4.33082e+12 	0 	0 	
0.045 48017 	0 	0 	
0.055 -99933.1 	0 	0 	
0.065 6.21739e+07 	0 	0 	
0.075 147477 	0 	0 	
0.085 2170.1 	0 	0 	
0.095 1.38423e+06 	0 	0 	
0.105 -169015 	0 	0 	
0.115 -14492.8 	0 	0 	
0.125 -2.5655e+06 	0 	0 	
0.135 -4.05531e+06 	0 	0 	
0.145 -9058.83 	0 	0 	
0.155 1.6244e+07 	0 	0 	
0.165 -607337 	0 	0 	
0.175 1.63384e+07 	-1.26351e-28 	0 	
0.185 -24117.5 	0 	0 	
0.195 152703 	0 	0 	
0.205 122944 	0 	0 	
0.215 6.42212e+10 	0 	0 	
0.225 -340920 	0 	0 	
0.235 2.91905e+06 	0 	0 	
0.245 1.77065e+06 	0 	0 	
0.255 76956.9 	0 	0 	
0.265 13989.3 	0 	0 	
0.275 544958 	0 	0 	
0.285 6689.38 	0 	0 	
0.295 -20842.5 	0 	0 	
0.305 -1.90552e+06 	0 	0 	
0.315 58498.5 	0 	0 	
0.325 8.97423e+08 	0 	0 	
0.335 -90656.6 	0 	0 	
0.345 -5.30261e+06 	0 	0 	
0.355 2.10373e+11 	0 	0 	
0.365 1.60525e+07 	0 	0 	
0.375 -5982.23 	0 	0 	
0.385 3.46159e+07 	0 	0 	
0.395 5.14754e+08 	0 	0 	
0.405 20149.5 	0 	0 	
0.415 -1.5093e+11 	0 	0 	
0.425 -6.52683e+24 	0 	0 	
0.435 -1.75445e+33 	0 	0 	
0.445 -3.73384e+42 	0 	0 	
0.455 -1.94598e+47 	0 	0 	
0.465 -7.78757e+58 	0 	0 	
0.475 -1.09013e+70 	0 	0 	
0.485 -6.3867e+76 	0 	0 	
0.495 -2.65301e+84 	0 	0 	
0.505 -9.84194e+87 	0 	0 	
0.515 4.55724e+88 	0 	0 	
0.525 1.00596e+80 	0 	0 	
0.535 5.86343e+68 	0 	0 	
0.545 3.84056e+59 	0 	0 	
0.555 3.2619e+47 	0 	0 	
0.565 2.97122e+36 	0 	0 	
0.575 6.01683e+25 	0 	0 	
0.585 5.47638e+12 	0 	0 	
0.595 -22000.7 	0 	0 	
0.605 -463906 	0 	0 	
0.615 -621.011 	0 	0 	
0.625 -1025.13 	0 	0 	
0.635 -4.66136e+07 	0 	0 	
0.645 3.42808e+07 	0 	0 	
0.655 16258.3 	0 	0 	
0.665 -805079 	0 	0 	
0.675 257605 	0 	0 	
0.685 -2.81191e+07 	0 	0 	
0.695 -5.49954e+06 	0 	0 	
0.705 -24736.2 	0 	0 	
0.715 302376 	0 	0 	
0.725 -2.69957e+06 	0 	0 	
0.735 3028.02 	0 	0 	
0.745 316237 	0 	0 	
0.755 106926 	0 	0 	
0.765 -14940.3 	0 	0 	
0.775 -4.19126e+06 	0 	0 	
0.785 -12790.7 	0 	0 	
0.795 -4853.57 	0 	0 	
0.805 -657863 	0 	0 	
0.815 -899295 	0 	0 	
0.825 -1.70555e+10 	0 	0 	
0.835 3.06739e+07 	0 	0 	
0.845 -919771 	0 	0 	
0.855 3.47453e+06 	0 	0 	
0.865 -1.69764e+06 	0 	0 	
0.875 2.98014e+07 	0 	0 	
0.885 1.56099e+10 	0 	0 	
0.895 -1.89984e+08 	0 	0 	
0.905 -462335 	0 	0 	
0.915 1.52348e+06 	0 	0 	
0.925 343569 	0 	0 	
0.935 3.26469e+06 	0 	0 	
0.945 -3.23972e+06 	0 	0 	
0.955 -1.95699e+06 	0 	0 	
0.965 1722.43 	0 	0 	
0.975 3.43957e+06 	0 	0 	
0.985 -104169 	0 	0 	
0.995 2.2808e+06 	0 	0 	
