0.005 2.9479e-14 	0 	0 	
0.015 1.56066e-13 	0 	0 	
0.025 4.33516e-14 	0 	0 	
0.035 -8.15007e-14 	0 	0 	
0.045 6.41602e-14 	0 	0 	
0.055 1.73426e-15 	0 	0 	
0.065 -5.89579e-14 	0 	0 	
0.075 -1.47395e-13 	0 	0 	
0.085 -5.20218e-15 	5.7756e-30 	0 	
0.095 -1.73406e-15 	0 	0 	
0.105 6.76284e-14 	0 	0 	
0.115 -3.98832e-14 	-3.12843e-30 	0 	
0.125 -1.99417e-13 	2.8878e-30 	0 	
0.135 -7.80326e-14 	0 	0 	
0.145 1.1098e-13 	0 	0 	
0.155 -2.77451e-14 	0 	0 	
0.165 -7.97666e-14 	0 	0 	
0.175 -2.60108e-14 	0 	0 	
0.185 1.90749e-14 	0 	0 	
0.195 6.41602e-14 	0 	0 	
0.205 8.6703e-15 	0 	0 	
0.215 5.89581e-14 	0 	0 	
0.225 -1.73406e-14 	0 	0 	
0.235 1.21385e-14 	0 	0 	
0.245 7.80327e-14 	0 	0 	
0.255 2.94788e-14 	0 	0 	
0.265 -2.42768e-14 	0 	0 	
0.275 1.73404e-14 	0 	0 	
0.285 5.37559e-14 	0 	0 	
0.295 4.33518e-14 	0 	0 	
0.305 -6.24261e-14 	0 	0 	
0.315 4.50854e-14 	0 	0 	
0.325 -7.80326e-14 	0 	0 	
0.335 -6.93625e-14 	0 	0 	
0.345 4.68197e-14 	0 	0 	
0.355 -6.58944e-14 	0 	0 	
0.365 9.88417e-14 	0 	0 	
0.375 -1.21384e-13 	0 	0 	
0.385 -4.85538e-14 	0 	0 	
0.395 1.24852e-13 	0 	0 	
0.405 -5.87635e-25 	0 	0 	
0.415 -5.20215e-15 	0 	0 	
0.425 -2.35058e-24 	0 	0 	
0.435 0.00029009 	0 	0 	
0.445 0.114781 	0 	0 	
0.455 3.09775 	0 	0 	
0.465 19.9857 	0 	0 	
0.475 58.0017 	0 	0 	
0.485 106.31 	0 	0 	
0.495 129.647 	0 	0 	
0.505 130.185 	0 	0 	
0.515 130.12 	0 	0 	
0.525 129.304 	0 	0 	
0.535 118.812 	0 	0 	
0.545 50.7426 	0 	0 	
0.555 1.42625 	0 	0 	
0.565 0.00193605 	0 	0 	
0.575 -3.25134e-14 	0 	0 	
0.585 -1.43062e-14 	0 	0 	
0.595 2.6011e-14 	0 	0 	
0.605 1.6777e-13 	0 	0 	
0.615 1.82076e-14 	0 	0 	
0.625 -3.90164e-14 	0 	0 	
0.635 4.42186e-14 	0 	0 	
0.645 1.01443e-13 	0 	0 	
0.655 -4.29181e-14 	0 	0 	
0.665 9.36393e-14 	0 	0 	
0.675 1.10546e-13 	0 	0 	
0.685 1.28754e-13 	0 	0 	
0.695 -1.30055e-15 	0 	0 	
0.705 -2.08089e-14 	0 	0 	
0.715 5.0721e-14 	0 	0 	
0.725 -1.30054e-13 	0 	0 	
0.735 -5.07214e-14 	0 	0 	
0.745 -4.94207e-14 	0 	0 	
0.755 -5.98251e-14 	0 	0 	
0.765 -6.11254e-14 	0 	0 	
0.775 2.60109e-14 	0 	0 	
0.785 -3.25134e-14 	0 	0 	
0.795 7.54318e-14 	0 	0 	
0.805 7.93335e-14 	0 	0 	
0.815 -1.4306e-13 	0 	0 	
0.825 -3.25137e-14 	0 	0 	
0.835 5.72239e-14 	0 	0 	
0.845 -3.25135e-14 	0 	0 	
0.855 -2.99124e-14 	0 	0 	
0.865 2.47105e-14 	0 	0 	
0.875 -6.50262e-15 	0 	0 	
0.885 2.60109e-14 	0 	0 	
0.895 2.08087e-14 	0 	0 	
0.905 9.88412e-14 	0 	0 	
0.915 2.60075e-15 	0 	0 	
0.925 6.50271e-14 	0 	0 	
0.935 -9.7541e-14 	0 	0 	
0.945 1.69068e-14 	0 	0 	
0.955 -6.37265e-14 	0 	0 	
0.965 2.60111e-14 	0 	0 	
0.975 3.90165e-14 	0 	0 	
0.985 -7.28309e-14 	0 	0 	
0.995 -1.23552e-13 	0 	0 	
