0.005 4.90141e-14 	0 	0 	
0.015 8.22944e-14 	0 	0 	
0.025 9.99288e-14 	0 	0 	
0.035 9.99287e-14 	0 	0 	
0.045 5.58426e-14 	0 	0 	
0.055 -2.93905e-15 	0 	0 	
0.065 -5.87815e-15 	0 	0 	
0.075 -8.81727e-15 	0 	0 	
0.085 -2.93909e-14 	0 	0 	
0.095 -2.50004e-20 	0 	0 	
0.105 8.81725e-15 	0 	0 	
0.115 -3.23299e-14 	0 	0 	
0.125 -7.93552e-14 	0 	0 	
0.135 -1.38137e-13 	0 	0 	
0.145 -1.85162e-13 	-1.63152e-30 	0 	
0.155 -1.85163e-13 	1.30522e-30 	0 	
0.165 -1.46954e-13 	0 	0 	
0.175 -1.14624e-13 	0 	0 	
0.185 -7.34771e-14 	0 	0 	
0.195 5.87815e-15 	0 	0 	
0.205 5.87817e-14 	0 	0 	
0.215 6.17208e-14 	0 	0 	
0.225 7.93552e-14 	0 	0 	
0.235 9.69896e-14 	5.54716e-30 	0 	
0.245 6.75989e-14 	6.52609e-31 	0 	
0.255 3.23299e-14 	0 	0 	
0.265 2.05736e-14 	0 	0 	
0.275 8.81725e-15 	0 	0 	
0.285 1.76345e-14 	0 	0 	
0.295 4.70254e-14 	0 	0 	
0.305 4.70254e-14 	0 	0 	
0.315 2.93909e-14 	0 	0 	
0.325 2.05736e-14 	0 	0 	
0.335 -2.9391e-15 	0 	0 	
0.345 -4.11472e-14 	0 	0 	
0.355 -5.29035e-14 	0 	0 	
0.365 -3.82081e-14 	0 	0 	
0.375 -2.93908e-14 	0 	0 	
0.385 -3.82081e-14 	0 	0 	
0.395 -5.58426e-14 	0 	0 	
0.405 -5.29036e-14 	0 	0 	
0.415 0.343527 	0 	0 	
0.425 4.94595 	0 	0 	
0.435 19.592 	0 	0 	
0.445 43.7236 	0 	0 	
0.455 71.6877 	0 	0 	
0.465 97.8821 	0 	0 	
0.475 117.609 	0 	0 	
0.485 127.971 	0 	0 	
0.495 130.174 	0 	0 	
0.505 129.254 	0 	0 	
0.515 128.703 	0 	0 	
0.525 129.265 	0 	0 	
0.535 130.592 	0 	0 	
0.545 131.402 	0 	0 	
0.555 130.122 	0 	0 	
0.565 120.99 	0 	0 	
0.575 92.0487 	-1.47011e-30 	0 	
0.585 46.3948 	0 	0 	
0.595 11.4602 	0 	0 	
0.605 0.50393 	0 	0 	
0.615 -7.05381e-14 	0 	0 	
0.625 -8.59683e-14 	0 	0 	
0.635 -7.7151e-14 	0 	0 	
0.645 -3.5269e-14 	0 	0 	
0.655 -2.20432e-15 	0 	0 	
0.665 -6.61293e-15 	0 	0 	
0.675 -2.20431e-14 	0 	0 	
0.685 -6.61293e-15 	0 	0 	
0.695 1.98388e-14 	0 	0 	
0.705 2.42475e-14 	0 	0 	
0.715 3.96776e-14 	0 	0 	
0.725 7.71509e-14 	0 	0 	
0.735 1.01398e-13 	0 	0 	
0.745 8.15595e-14 	0 	0 	
0.755 3.30647e-14 	0 	0 	
0.765 4.40863e-15 	0 	0 	
0.775 -4.40862e-15 	0 	0 	
0.785 -2.20431e-14 	0 	0 	
0.795 -2.64518e-14 	0 	0 	
0.805 2.2043e-15 	0 	0 	
0.815 2.42475e-14 	-4.64984e-30 	0 	
0.825 1.98389e-14 	0 	0 	
0.835 6.61295e-15 	0 	0 	
0.845 0 	0 	0 	
0.855 -2.20431e-15 	0 	0 	
0.865 -2.20432e-14 	0 	0 	
0.875 -4.40863e-14 	0 	0 	
0.885 -3.74734e-14 	0 	0 	
0.895 -1.98389e-14 	0 	0 	
0.905 -1.10216e-14 	0 	0 	
0.915 -1.76345e-14 	0 	0 	
0.925 -2.64518e-14 	0 	0 	
0.935 -2.42475e-14 	0 	0 	
0.945 -1.32259e-14 	0 	0 	
0.955 1.76345e-14 	0 	0 	
0.965 5.51078e-14 	0 	0 	
0.975 6.61294e-14 	0 	0 	
0.985 4.84949e-14 	0 	0 	
0.995 2.53661e-14 	0 	0 	
