0.005 -4.8495e-14 	0 	0 	
0.015 7.27425e-14 	0 	0 	
0.025 -7.27425e-14 	0 	0 	
0.035 -3.233e-14 	0 	0 	
0.045 1.05072e-13 	0 	0 	
0.055 -7.27425e-14 	0 	0 	
0.065 -1.7627e-25 	0 	0 	
0.075 -2.87148e-29 	0 	0 	
0.085 -7.27423e-14 	0 	0 	
0.095 -2.42475e-14 	0 	0 	
0.105 1.6165e-14 	0 	0 	
0.115 2.42474e-14 	0 	0 	
0.125 -1.6165e-14 	0 	0 	
0.135 1.6165e-14 	0 	0 	
0.145 -2.42471e-14 	0 	0 	
0.155 4.04125e-14 	0 	0 	
0.165 -6.466e-14 	0 	0 	
0.175 -8.0825e-14 	0 	0 	
0.185 -3.233e-14 	0 	0 	
0.195 5.65775e-14 	0 	0 	
0.205 -3.23301e-14 	0 	0 	
0.215 -3.233e-14 	0 	0 	
0.225 -1.6165e-14 	0 	0 	
0.235 -1.05072e-13 	0 	0 	
0.245 1.6165e-14 	0 	0 	
0.255 -6.46599e-14 	0 	0 	
0.265 -2.42475e-14 	0 	0 	
0.275 4.84951e-14 	0 	0 	
0.285 4.84949e-14 	0 	0 	
0.295 -4.04125e-14 	0 	0 	
0.305 -5.65775e-14 	0 	0 	
0.315 4.84951e-14 	1.79467e-30 	0 	
0.325 -8.08245e-15 	0 	0 	
0.335 -4.04125e-14 	-1.79467e-30 	0 	
0.345 -8.0825e-14 	0 	0 	
0.355 1.05073e-13 	-8.97337e-31 	0 	
0.365 4.84949e-14 	3.58935e-30 	0 	
0.375 1.53567e-13 	0 	0 	
0.385 -5.65775e-14 	0 	0 	
0.395 -3.92737e-20 	0 	0 	
0.405 1.6165e-14 	0 	0 	
0.415 -6.46596e-14 	0 	0 	
0.425 -8.0825e-14 	0 	0 	
0.435 6.466e-14 	0 	0 	
0.445 0.000905369 	0 	0 	
0.455 0.285156 	0 	0 	
0.465 6.1423 	-1.82413e-30 	0 	
0.475 33.2567 	0 	0 	
0.485 85.1054 	0 	0 	
0.495 127.172 	-3.37365e-31 	0 	
0.505 130.187 	-1.74208e-31 	0 	
0.515 129.873 	0 	0 	
0.525 122.516 	0 	0 	
0.535 64.9758 	0 	0 	
0.545 3.01458 	0 	0 	
0.555 0.005362 	0 	0 	
0.565 -1.21237e-14 	0 	0 	
0.575 -2.42475e-14 	0 	0 	
0.585 6.06228e-15 	0 	0 	
0.595 6.06187e-15 	0 	0 	
0.605 6.06192e-15 	0 	0 	
0.615 6.06186e-15 	0 	0 	
0.625 -6.06186e-15 	0 	0 	
0.635 4.24331e-14 	0 	0 	
0.645 3.88369e-20 	0 	0 	
0.655 5.45569e-14 	0 	0 	
0.665 1.81857e-14 	0 	0 	
0.675 -6.06188e-15 	0 	0 	
0.685 3.03095e-14 	0 	0 	
0.695 -1.51547e-13 	0 	0 	
0.705 6.66807e-14 	0 	0 	
0.715 -3.63713e-14 	0 	0 	
0.725 6.06185e-14 	0 	0 	
0.735 -1.21237e-14 	0 	0 	
0.745 6.66807e-14 	0 	0 	
0.755 -4.84951e-14 	0 	0 	
0.765 6.06188e-15 	0 	0 	
0.775 -2.42474e-14 	0 	0 	
0.785 -6.66806e-14 	0 	0 	
0.795 -3.03094e-14 	0 	0 	
0.805 3.03095e-14 	0 	0 	
0.815 3.03093e-14 	0 	0 	
0.825 6.66806e-14 	0 	0 	
0.835 3.03094e-14 	0 	0 	
0.845 -4.24327e-14 	0 	0 	
0.855 -1.21237e-14 	0 	0 	
0.865 4.24332e-14 	0 	0 	
0.875 -3.63712e-14 	0 	0 	
0.885 5.4557e-14 	0 	0 	
0.895 1.09114e-13 	0 	0 	
0.905 9.699e-14 	0 	0 	
0.915 -6.06188e-14 	0 	0 	
0.925 -6.06186e-15 	0 	0 	
0.935 -1.81857e-14 	0 	0 	
0.945 1.81855e-14 	0 	0 	
0.955 8.48661e-14 	0 	0 	
0.965 1.21237e-14 	0 	0 	
0.975 3.03094e-14 	0 	0 	
0.985 4.8495e-14 	0 	0 	
0.995 4.8495e-14 	0 	0 	
