0.005 -5.88414e-27 	0 	0 	
0.015 8.02738e-14 	0 	0 	
0.025 -5.49242e-14 	0 	0 	
0.035 1.39423e-13 	0 	0 	
0.045 2.11247e-14 	0 	0 	
0.055 4.64743e-14 	0 	0 	
0.065 -4.22494e-15 	-3.04889e-30 	0 	
0.075 5.06993e-14 	0 	0 	
0.085 -1.68997e-14 	0 	0 	
0.095 -2.95746e-14 	0 	0 	
0.105 -1.01399e-13 	0 	0 	
0.115 8.44988e-14 	0 	0 	
0.125 -5.49242e-14 	0 	0 	
0.135 6.7599e-14 	0 	0 	
0.145 -4.22494e-14 	0 	0 	
0.155 -1.68998e-13 	0 	0 	
0.165 -4.503e-29 	0 	0 	
0.175 2.95746e-14 	0 	0 	
0.185 -2.95746e-14 	0 	0 	
0.195 7.18239e-14 	0 	0 	
0.205 1.47873e-13 	0 	0 	
0.215 -1.68998e-14 	0 	0 	
0.225 -5.49242e-14 	0 	0 	
0.235 -8.44988e-14 	0 	0 	
0.245 -4.64743e-14 	0 	0 	
0.255 2.53496e-14 	0 	0 	
0.265 -1.64773e-13 	0 	0 	
0.275 -2.07022e-13 	0 	0 	
0.285 -1.47873e-13 	0 	0 	
0.295 -5.06993e-14 	0 	0 	
0.305 -9.76049e-24 	0 	0 	
0.315 1.47873e-13 	0 	0 	
0.325 6.7599e-14 	0 	0 	
0.335 1.39423e-13 	0 	0 	
0.345 -1.68997e-14 	0 	0 	
0.355 -1.22523e-13 	0 	0 	
0.365 -5.06992e-14 	0 	0 	
0.375 -8.44987e-15 	0 	0 	
0.385 -3.80244e-14 	0 	0 	
0.395 1.18298e-13 	0 	0 	
0.405 -3.37995e-14 	0 	0 	
0.415 7.64512e-06 	0 	0 	
0.425 0.0047375 	0 	0 	
0.435 0.260666 	0 	0 	
0.445 3.49438 	0 	0 	
0.455 17.3508 	0 	0 	
0.465 46.2203 	0 	0 	
0.475 85.4704 	0 	0 	
0.485 120.34 	8.53244e-31 	0 	
0.495 130.089 	0 	0 	
0.505 130.186 	0 	0 	
0.515 130.141 	0 	0 	
0.525 130.092 	0 	0 	
0.535 129.726 	0 	0 	
0.545 122.978 	0 	0 	
0.555 80.1766 	-1.12675e-30 	0 	
0.565 9.39203 	0 	0 	
0.575 0.124953 	0 	0 	
0.585 0.000215621 	0 	0 	
0.595 -3.16867e-15 	0 	0 	
0.605 -2.75436e-25 	0 	0 	
0.615 -1.58434e-14 	0 	0 	
0.625 2.21806e-14 	0 	0 	
0.635 4.75307e-14 	0 	0 	
0.645 6.97112e-14 	0 	0 	
0.655 9.82296e-14 	0 	0 	
0.665 6.33728e-15 	0 	0 	
0.675 -6.02056e-14 	0 	0 	
0.685 3.16868e-15 	0 	0 	
0.695 -3.48555e-14 	0 	0 	
0.705 -5.38681e-14 	0 	0 	
0.715 4.75303e-14 	0 	0 	
0.725 -7.28803e-14 	2.46259e-30 	0 	
0.735 1.58435e-14 	0 	0 	
0.745 2.85182e-14 	0 	0 	
0.755 9.18924e-14 	0 	0 	
0.765 -4.4362e-14 	-7.73954e-30 	0 	
0.775 -1.26748e-14 	0 	0 	
0.785 6.33741e-14 	0 	0 	
0.795 2.53495e-14 	0 	0 	
0.805 6.65425e-14 	0 	0 	
0.815 -1.26748e-14 	3.51796e-30 	0 	
0.825 3.48557e-14 	1.75898e-30 	0 	
0.835 5.51028e-26 	0 	0 	
0.845 -6.65428e-14 	0 	0 	
0.855 6.33712e-15 	0 	0 	
0.865 -9.50609e-14 	0 	0 	
0.875 3.80242e-14 	0 	0 	
0.885 8.87236e-14 	0 	0 	
0.895 -3.80243e-14 	0 	0 	
0.905 9.50594e-15 	0 	0 	
0.915 -6.33741e-14 	0 	0 	
0.925 2.21809e-14 	0 	0 	
0.935 1.01398e-13 	0 	0 	
0.945 6.33739e-14 	0 	0 	
0.955 -9.50607e-15 	0 	0 	
0.965 -7.60489e-14 	0 	0 	
0.975 -2.85183e-14 	0 	0 	
0.985 -1.26749e-14 	0 	0 	
0.995 5.70367e-14 	0 	0 	
