0.005 4.90141e-14 	0 	0 	
0.015 8.22944e-14 	0 	0 	
0.025 9.99288e-14 	0 	0 	
0.035 9.11115e-14 	0 	0 	
0.045 3.52689e-14 	0 	0 	
0.055 -2.35127e-14 	0 	0 	
0.065 -2.93909e-14 	0 	0 	
0.075 -2.05736e-14 	0 	0 	
0.085 -2.64518e-14 	0 	0 	
0.095 -1.17563e-14 	0 	0 	
0.105 1.17563e-14 	0 	0 	
0.115 1.17563e-14 	0 	0 	
0.125 -1.17563e-14 	0 	0 	
0.135 -5.58426e-14 	0 	0 	
0.145 -9.99289e-14 	-4.56826e-30 	0 	
0.155 -1.26381e-13 	0 	0 	
0.165 -1.58711e-13 	0 	0 	
0.175 -2.05736e-13 	0 	0 	
0.185 -2.23371e-13 	0 	0 	
0.195 -1.70467e-13 	0 	0 	
0.205 -7.05381e-14 	0 	0 	
0.215 5.87815e-15 	0 	0 	
0.225 5.29035e-14 	0 	0 	
0.235 7.93553e-14 	9.13651e-30 	0 	
0.245 6.7599e-14 	0 	0 	
0.255 6.17208e-14 	0 	0 	
0.265 6.17208e-14 	0 	0 	
0.275 2.93909e-14 	0 	0 	
0.285 2.93908e-15 	0 	0 	
0.295 0 	0 	0 	
0.305 0 	0 	0 	
0.315 -2.93907e-15 	0 	0 	
0.325 2.9391e-15 	0 	0 	
0.335 8.81725e-15 	0 	0 	
0.345 -2.9391e-15 	0 	0 	
0.355 -8.81725e-15 	0 	0 	
0.365 -1.76345e-14 	0 	0 	
0.375 -4.40863e-14 	0 	0 	
0.385 0.262022 	0 	0 	
0.395 3.72094 	0 	0 	
0.405 14.668 	0 	0 	
0.415 32.7571 	0 	0 	
0.425 54.3338 	0 	0 	
0.435 76.7488 	0 	0 	
0.445 97.8453 	0 	0 	
0.455 115.004 	0 	0 	
0.465 125.386 	0 	0 	
0.475 129.144 	0 	0 	
0.485 129.964 	0 	0 	
0.495 130.229 	0 	0 	
0.505 130.492 	0 	0 	
0.515 130.784 	0 	0 	
0.525 130.698 	0 	0 	
0.535 130.191 	0 	0 	
0.545 129.657 	0 	0 	
0.555 129.25 	0 	0 	
0.565 129.094 	0 	0 	
0.575 129.871 	-3.38316e-30 	0 	
0.585 130.327 	-1.69429e-30 	0 	
0.595 127.868 	0 	0 	
0.605 116.085 	0 	0 	
0.615 83.6889 	0 	0 	
0.625 38.4051 	0 	0 	
0.635 7.99665 	0 	0 	
0.645 0.0361633 	0 	0 	
0.655 1.10215e-14 	0 	0 	
0.665 2.2043e-15 	0 	0 	
0.675 -2.20433e-15 	0 	0 	
0.685 2.20431e-14 	0 	0 	
0.695 4.40863e-14 	0 	0 	
0.705 5.95165e-14 	0 	0 	
0.715 5.73122e-14 	0 	0 	
0.725 6.61295e-14 	0 	0 	
0.735 8.81728e-14 	0 	0 	
0.745 6.61295e-14 	0 	0 	
0.755 2.42475e-14 	0 	0 	
0.765 4.40863e-15 	0 	0 	
0.775 -4.40862e-15 	0 	0 	
0.785 -2.20431e-14 	0 	0 	
0.795 -2.64518e-14 	0 	0 	
0.805 2.2043e-15 	0 	0 	
0.815 2.42475e-14 	-6.85239e-30 	0 	
0.825 1.32259e-14 	0 	0 	
0.835 -1.76345e-14 	0 	0 	
0.845 -3.52691e-14 	0 	0 	
0.855 -3.30647e-14 	0 	0 	
0.865 -3.30647e-14 	0 	0 	
0.875 -3.74733e-14 	0 	0 	
0.885 -5.29035e-14 	0 	0 	
0.895 -7.7151e-14 	0 	0 	
0.905 -6.61295e-14 	0 	0 	
0.915 -2.64518e-14 	0 	0 	
0.925 -1.32259e-14 	0 	0 	
0.935 -8.81725e-15 	0 	0 	
0.945 2.86561e-14 	0 	0 	
0.955 7.93553e-14 	0 	0 	
0.965 9.69898e-14 	0 	0 	
0.975 8.15596e-14 	0 	0 	
0.985 6.61294e-14 	0 	0 	
0.995 4.89007e-14 	0 	0 	
