0.005 -9.699e-14 	0 	0 	
0.015 -1.6165e-14 	0 	0 	
0.025 -7.27425e-14 	0 	0 	
0.035 8.08246e-15 	0 	0 	
0.045 8.08251e-14 	0 	0 	
0.055 -8.08245e-14 	0 	0 	
0.065 -5.65771e-14 	0 	0 	
0.075 8.08249e-15 	0 	0 	
0.085 -1.6165e-14 	0 	0 	
0.095 3.233e-14 	0 	0 	
0.105 -8.0825e-15 	0 	0 	
0.115 7.2742e-14 	0 	0 	
0.125 -3.56397e-21 	0 	0 	
0.135 1.6165e-14 	0 	0 	
0.145 -4.04121e-14 	0 	0 	
0.155 4.04125e-14 	0 	0 	
0.165 9.69901e-14 	0 	0 	
0.175 -8.08247e-14 	0 	0 	
0.185 7.27421e-14 	0 	0 	
0.195 -3.233e-14 	0 	0 	
0.205 6.46599e-14 	0 	0 	
0.215 8.0825e-15 	0 	0 	
0.225 1.05072e-13 	0 	0 	
0.235 2.42475e-14 	0 	0 	
0.245 -1.6165e-14 	0 	0 	
0.255 -1.2932e-13 	0 	0 	
0.265 4.04125e-14 	0 	0 	
0.275 -8.08251e-15 	0 	0 	
0.285 -3.23299e-14 	0 	0 	
0.295 -1.6165e-14 	0 	0 	
0.305 -1.21238e-13 	0 	0 	
0.315 8.0825e-14 	2.01901e-30 	0 	
0.325 1.6165e-14 	0 	0 	
0.335 1.2932e-13 	-2.01901e-30 	0 	
0.345 -5.65775e-14 	0 	0 	
0.355 5.65775e-14 	-1.0095e-30 	0 	
0.365 6.466e-14 	4.03801e-30 	0 	
0.375 6.466e-14 	0 	0 	
0.385 -8.89075e-14 	0 	0 	
0.395 -7.27425e-14 	0 	0 	
0.405 -9.699e-14 	0 	0 	
0.415 1.69732e-13 	0 	0 	
0.425 -1.45485e-13 	0 	0 	
0.435 1.32165e-05 	0 	0 	
0.445 0.0229288 	0 	0 	
0.455 1.24792 	0 	0 	
0.465 12.3629 	-2.08918e-30 	0 	
0.475 45.6393 	0 	0 	
0.485 96.2971 	0 	0 	
0.495 128.644 	-4.23025e-31 	0 	
0.505 130.189 	-1.72526e-31 	0 	
0.515 130.067 	0 	0 	
0.525 127.503 	0 	0 	
0.535 98.2173 	0 	0 	
0.545 17.5868 	0 	0 	
0.555 0.194259 	0 	0 	
0.565 6.71693e-05 	0 	0 	
0.575 -6.06186e-15 	0 	0 	
0.585 3.63712e-14 	0 	0 	
0.595 7.27426e-14 	0 	0 	
0.605 -3.03093e-14 	0 	0 	
0.615 6.06188e-15 	0 	0 	
0.625 6.06186e-15 	0 	0 	
0.635 -6.06186e-15 	0 	0 	
0.645 8.8142e-25 	0 	0 	
0.655 4.84949e-14 	0 	0 	
0.665 -7.27424e-14 	0 	0 	
0.675 -2.42474e-14 	0 	0 	
0.685 -3.63713e-14 	0 	0 	
0.695 -8.48663e-14 	0 	0 	
0.705 -7.27425e-14 	0 	0 	
0.715 -3.03093e-14 	0 	0 	
0.725 -1.21238e-14 	0 	0 	
0.735 -3.63713e-14 	0 	0 	
0.745 -1.81856e-14 	0 	0 	
0.755 6.66807e-14 	0 	0 	
0.765 2.42474e-14 	0 	0 	
0.775 -4.24331e-14 	0 	0 	
0.785 -1.03052e-13 	0 	0 	
0.795 -1.81856e-14 	0 	0 	
0.805 5.45567e-14 	0 	0 	
0.815 4.40721e-25 	0 	0 	
0.825 5.45568e-14 	0 	0 	
0.835 6.06188e-14 	0 	0 	
0.845 -1.21238e-14 	0 	0 	
0.855 -1.81855e-14 	0 	0 	
0.865 1.27299e-13 	0 	0 	
0.875 3.63712e-14 	0 	0 	
0.885 6.06186e-15 	0 	0 	
0.895 1.15175e-13 	0 	0 	
0.905 4.8495e-14 	0 	0 	
0.915 -2.42474e-14 	0 	0 	
0.925 5.45569e-14 	0 	0 	
0.935 4.84951e-14 	0 	0 	
0.945 3.63712e-14 	0 	0 	
0.955 -4.2433e-14 	0 	0 	
0.965 1.33557e-21 	0 	0 	
0.975 2.42474e-14 	0 	0 	
0.985 -5.45569e-14 	0 	0 	
0.995 -4.84949e-14 	0 	0 	
