0.005 -5.65775e-14 	0 	0 	
0.015 -5.65775e-14 	0 	0 	
0.025 1.17548e-25 	0 	0 	
0.035 -1.25182e-19 	0 	0 	
0.045 3.23295e-14 	0 	0 	
0.055 3.233e-14 	0 	0 	
0.065 2.42475e-14 	0 	0 	
0.075 -1.17563e-25 	0 	0 	
0.085 1.6165e-14 	0 	0 	
0.095 8.0825e-14 	0 	0 	
0.105 3.23301e-14 	0 	0 	
0.115 3.233e-14 	0 	0 	
0.125 -1.6165e-14 	0 	0 	
0.135 -4.8495e-14 	0 	0 	
0.145 1.17522e-24 	0 	0 	
0.155 1.61646e-14 	0 	0 	
0.165 -5.65774e-14 	0 	0 	
0.175 3.23301e-14 	0 	0 	
0.185 -8.08249e-15 	0 	0 	
0.195 1.6165e-14 	0 	0 	
0.205 7.27425e-14 	0 	0 	
0.215 4.8495e-14 	0 	0 	
0.225 -2.42479e-14 	0 	0 	
0.235 -5.65774e-14 	0 	0 	
0.245 1.6165e-14 	0 	0 	
0.255 3.233e-14 	0 	0 	
0.265 -8.0825e-15 	0 	0 	
0.275 5.65775e-14 	0 	0 	
0.285 -3.23299e-14 	0 	0 	
0.295 -1.6165e-14 	0 	0 	
0.305 -2.42475e-14 	0 	0 	
0.315 -5.65775e-14 	2.46767e-30 	0 	
0.325 -4.8495e-14 	0 	0 	
0.335 4.8495e-14 	-2.46767e-30 	0 	
0.345 8.08249e-14 	0 	0 	
0.355 -1.6165e-14 	-1.23384e-30 	0 	
0.365 4.8495e-14 	4.93534e-30 	0 	
0.375 -4.84952e-14 	0 	0 	
0.385 1.6165e-14 	0 	0 	
0.395 -1.6165e-14 	0 	0 	
0.405 -4.04125e-14 	0 	0 	
0.415 3.92737e-20 	0 	0 	
0.425 3.55592e-05 	0 	0 	
0.435 0.0167593 	0 	0 	
0.445 0.714911 	0 	0 	
0.455 7.35138 	0 	0 	
0.465 29.6822 	-2.20028e-30 	0 	
0.475 69.059 	0 	0 	
0.485 112.403 	0 	0 	
0.495 129.836 	-4.23874e-31 	0 	
0.505 130.188 	-3.41646e-31 	0 	
0.515 130.131 	0 	0 	
0.525 129.867 	0 	0 	
0.535 124.981 	0 	0 	
0.545 86.8012 	0 	0 	
0.555 12.009 	0 	0 	
0.565 0.164372 	0 	0 	
0.575 0.000216366 	0 	0 	
0.585 3.63713e-14 	0 	0 	
0.595 -1.27299e-13 	0 	0 	
0.605 -1.21237e-14 	0 	0 	
0.615 5.45568e-14 	0 	0 	
0.625 1.21237e-14 	0 	0 	
0.635 5.45569e-14 	0 	0 	
0.645 1.21237e-14 	0 	0 	
0.655 -1.81856e-14 	0 	0 	
0.665 -6.06188e-14 	0 	0 	
0.675 6.06197e-15 	0 	0 	
0.685 5.45567e-14 	0 	0 	
0.695 -4.24331e-14 	0 	0 	
0.705 -3.03092e-14 	0 	0 	
0.715 -8.48661e-14 	0 	0 	
0.725 4.24332e-14 	0 	0 	
0.735 -7.2742e-14 	0 	0 	
0.745 2.42479e-14 	0 	0 	
0.755 4.24331e-14 	0 	0 	
0.765 6.06175e-15 	0 	0 	
0.775 -2.63281e-20 	0 	0 	
0.785 4.24331e-14 	0 	0 	
0.795 -2.42475e-14 	0 	0 	
0.805 4.2433e-14 	0 	0 	
0.815 4.2433e-14 	0 	0 	
0.825 4.84949e-14 	0 	0 	
0.835 -1.32988e-21 	0 	0 	
0.845 1.21237e-14 	0 	0 	
0.855 -4.24332e-14 	0 	0 	
0.865 4.24332e-14 	0 	0 	
0.875 3.03093e-14 	0 	0 	
0.885 -3.63711e-14 	0 	0 	
0.895 -1.81856e-14 	0 	0 	
0.905 4.84949e-14 	0 	0 	
0.915 -4.24328e-14 	0 	0 	
0.925 5.45569e-14 	0 	0 	
0.935 -1.81856e-14 	0 	0 	
0.945 3.63713e-14 	0 	0 	
0.955 7.88043e-14 	0 	0 	
0.965 -9.0928e-14 	0 	0 	
0.975 -1.32901e-21 	0 	0 	
0.985 -3.63713e-14 	0 	0 	
0.995 -1.81857e-14 	0 	0 	
