0.005 -2.72749e-14 	0 	0 	
0.015 1.0569e-13 	0 	0 	
0.025 -3.40932e-14 	0 	0 	
0.035 -2.72746e-14 	0 	0 	
0.045 -1.12508e-13 	0 	0 	
0.055 -1.36374e-13 	0 	0 	
0.065 2.38655e-14 	0 	0 	
0.075 5.114e-14 	0 	0 	
0.085 -5.45495e-14 	0 	0 	
0.095 1.70467e-14 	0 	0 	
0.105 -2.38656e-14 	0 	0 	
0.115 8.52333e-14 	0 	0 	
0.125 8.52335e-14 	0 	0 	
0.135 -2.38654e-14 	0 	0 	
0.145 -8.52334e-14 	0 	0 	
0.155 -4.09117e-14 	0 	0 	
0.165 -1.3637e-14 	0 	0 	
0.175 -3.40934e-14 	0 	0 	
0.185 5.45058e-29 	-4.02169e-30 	0 	
0.195 -1.84104e-13 	0 	0 	
0.205 5.7959e-14 	0 	0 	
0.215 2.35244e-13 	0 	0 	
0.225 1.19327e-13 	0 	0 	
0.235 -2.0456e-14 	0 	0 	
0.245 -9.20524e-14 	0 	0 	
0.255 1.22736e-13 	-4.02169e-30 	0 	
0.265 -4.77307e-14 	-2.01085e-30 	0 	
0.275 -2.49994e-19 	0 	0 	
0.285 6.81868e-15 	0 	0 	
0.295 -9.20521e-14 	0 	0 	
0.305 -1.63648e-13 	0 	0 	
0.315 8.18239e-14 	0 	0 	
0.325 -5.11402e-14 	0 	0 	
0.335 2.38655e-14 	0 	0 	
0.345 -4.09121e-14 	0 	0 	
0.355 6.47772e-14 	-1.77428e-30 	0 	
0.365 1.0228e-14 	0 	0 	
0.375 6.81865e-14 	0 	0 	
0.385 -4.09123e-14 	0 	0 	
0.395 8.1824e-14 	0 	0 	
0.405 1.09855e-07 	0 	0 	
0.415 0.00037302 	0 	0 	
0.425 0.0446297 	0 	0 	
0.435 1.03196 	0 	0 	
0.445 7.70532 	0 	0 	
0.455 26.9024 	0 	0 	
0.465 59.0181 	0 	0 	
0.475 97.158 	0 	0 	
0.485 125.084 	0 	0 	
0.495 130.197 	7.15117e-31 	0 	
0.505 130.179 	0 	0 	
0.515 130.137 	0 	0 	
0.525 130.098 	0 	0 	
0.535 129.921 	0 	0 	
0.545 126.569 	0 	0 	
0.555 101.183 	0 	0 	
0.565 26.5636 	0 	0 	
0.575 0.69311 	0 	0 	
0.585 0.00332045 	0 	0 	
0.595 6.18091e-07 	0 	0 	
0.605 -6.9039e-14 	0 	0 	
0.615 -1.02281e-13 	0 	0 	
0.625 -1.2785e-14 	0 	0 	
0.635 -8.9495e-14 	0 	0 	
0.645 1.78994e-14 	0 	0 	
0.655 -9.71664e-14 	0 	0 	
0.665 -2.55685e-15 	0 	0 	
0.675 1.2785e-14 	0 	0 	
0.685 -5.11365e-15 	0 	0 	
0.695 -1.2785e-13 	0 	0 	
0.705 5.114e-14 	0 	0 	
0.715 -2.557e-14 	0 	0 	
0.725 1.2785e-14 	0 	0 	
0.735 6.6482e-14 	0 	0 	
0.745 4.8583e-14 	0 	0 	
0.755 1.7899e-14 	0 	0 	
0.765 7.671e-15 	0 	0 	
0.775 7.67102e-14 	0 	0 	
0.785 -1.0228e-14 	0 	0 	
0.795 -1.7899e-14 	0 	0 	
0.805 -5.3697e-14 	0 	0 	
0.815 3.3241e-14 	0 	0 	
0.825 1.27852e-14 	0 	0 	
0.835 5.36974e-14 	0 	0 	
0.845 -2.30129e-14 	0 	0 	
0.855 -4.85835e-14 	0 	0 	
0.865 1.71319e-13 	0 	0 	
0.875 1.0228e-13 	0 	0 	
0.885 -2.557e-15 	0 	0 	
0.895 -1.0228e-14 	0 	0 	
0.905 -4.3469e-14 	0 	0 	
0.915 3.5798e-14 	0 	0 	
0.925 2.557e-14 	0 	0 	
0.935 1.30587e-29 	0 	0 	
0.945 -6.81325e-29 	0 	0 	
0.955 2.55701e-15 	0 	0 	
0.965 9.7166e-14 	0 	0 	
0.975 1.27848e-14 	0 	0 	
0.985 -7.67101e-15 	0 	0 	
0.995 6.13684e-14 	0 	0 	
