0.005 -2.11247e-14 	0 	0 	
0.015 3.37995e-14 	0 	0 	
0.025 -9.71736e-14 	0 	0 	
0.035 8.44988e-14 	0 	0 	
0.045 1.52098e-13 	0 	0 	
0.055 -8.02738e-14 	0 	0 	
0.065 -2.11247e-14 	-8.20859e-30 	0 	
0.075 -1.98572e-13 	0 	0 	
0.085 4.22494e-15 	0 	0 	
0.095 -8.02738e-14 	0 	0 	
0.105 -3.80244e-14 	0 	0 	
0.115 -6.33741e-14 	0 	0 	
0.125 -1.18298e-13 	0 	0 	
0.135 1.73222e-13 	0 	0 	
0.145 9.71736e-14 	0 	0 	
0.155 -8.44987e-15 	0 	0 	
0.165 -1.26748e-14 	0 	0 	
0.175 5.91491e-14 	0 	0 	
0.185 3.80244e-14 	0 	0 	
0.195 4.64743e-14 	0 	0 	
0.205 8.02738e-14 	0 	0 	
0.215 1.05623e-13 	0 	0 	
0.225 9.71736e-14 	0 	0 	
0.235 -7.18239e-14 	0 	0 	
0.245 -3.37995e-14 	0 	0 	
0.255 -9.71736e-14 	0 	0 	
0.265 2.95746e-14 	0 	0 	
0.275 3.37995e-14 	0 	0 	
0.285 3.88694e-13 	0 	0 	
0.295 3.18104e-10 	0 	0 	
0.305 6.24117e-08 	0 	0 	
0.315 4.94283e-06 	0 	0 	
0.325 0.000198451 	0 	0 	
0.335 0.00438897 	0 	0 	
0.345 0.0547253 	0 	0 	
0.355 0.408261 	0 	0 	
0.365 1.93534 	0 	0 	
0.375 6.17427 	-4.77667e-31 	0 	
0.385 14.3707 	0 	0 	
0.395 26.6513 	0 	0 	
0.405 42.2532 	0 	0 	
0.415 60.1079 	0 	0 	
0.425 79.1281 	0 	0 	
0.435 98.0367 	0 	0 	
0.445 114.73 	3.35103e-31 	0 	
0.455 125.827 	1.39362e-30 	0 	
0.465 129.754 	0 	0 	
0.475 130.193 	0 	0 	
0.485 130.177 	3.53693e-31 	0 	
0.495 130.156 	0 	0 	
0.505 130.14 	0 	0 	
0.515 130.127 	1.77068e-31 	0 	
0.525 130.116 	0 	0 	
0.535 130.106 	0 	0 	
0.545 130.096 	0 	0 	
0.555 130.086 	-5.15228e-30 	0 	
0.565 130.074 	0 	0 	
0.575 130.059 	0 	0 	
0.585 130.038 	0 	0 	
0.595 130.003 	0 	0 	
0.605 129.927 	0 	0 	
0.615 130.281 	-2.65785e-30 	0 	
0.625 130.671 	0 	0 	
0.635 88.4752 	0 	0 	
0.645 82.9324 	0 	0 	
0.655 9.51677 	0 	0 	
0.665 0.381885 	0 	0 	
0.675 0.0101624 	0 	0 	
0.685 0.000180604 	0 	0 	
0.695 1.86026e-06 	0 	0 	
0.705 8.57284e-09 	0 	0 	
0.715 1.28871e-11 	0 	0 	
0.725 1.25007e-19 	7.03593e-30 	0 	
0.735 -2.53496e-14 	0 	0 	
0.745 -6.65426e-14 	0 	0 	
0.755 5.0699e-14 	0 	0 	
0.765 -1.25007e-19 	-1.8997e-29 	0 	
0.775 -4.11929e-14 	0 	0 	
0.785 -1.58434e-14 	0 	0 	
0.795 -5.38681e-14 	0 	0 	
0.805 1.4576e-13 	0 	0 	
0.815 -6.3374e-15 	1.05539e-29 	0 	
0.825 -6.97116e-14 	4.74926e-30 	0 	
0.835 -2.21807e-14 	0 	0 	
0.845 -9.50606e-14 	0 	0 	
0.855 -8.87236e-14 	0 	0 	
0.865 -2.21808e-14 	0 	0 	
0.875 -2.53494e-14 	0 	0 	
0.885 5.70367e-14 	0 	0 	
0.895 2.21806e-14 	0 	0 	
0.905 -3.48557e-14 	0 	0 	
0.915 -3.16869e-14 	0 	0 	
0.925 1.10904e-13 	0 	0 	
0.935 8.23861e-14 	0 	0 	
0.945 1.4576e-13 	0 	0 	
0.955 1.26748e-14 	0 	0 	
0.965 4.75308e-14 	0 	0 	
0.975 6.02056e-14 	0 	0 	
0.985 -7.92175e-14 	0 	0 	
0.995 3.80243e-14 	0 	0 	
