0.005 1.29785e-13 	0 	0 	
0.015 -7.59883e-14 	0 	0 	
0.025 6.05213e-14 	0 	0 	
0.035 2.01739e-15 	0 	0 	
0.045 -1.74841e-14 	0 	0 	
0.055 -2.69003e-15 	0 	0 	
0.065 6.72463e-14 	0 	0 	
0.075 -7.39711e-14 	0 	0 	
0.085 9.61621e-14 	0 	0 	
0.095 -1.23061e-13 	0 	0 	
0.105 1.30458e-13 	0 	0 	
0.115 -4.5055e-14 	4.66616e-30 	0 	
0.125 -1.68118e-14 	0 	0 	
0.135 4.10201e-14 	0 	0 	
0.145 -1.91652e-13 	0 	0 	
0.155 1.21045e-14 	0 	0 	
0.165 -1.17008e-13 	0 	0 	
0.175 -5.71594e-14 	0 	0 	
0.185 -6.11939e-14 	0 	0 	
0.195 -3.90029e-14 	0 	0 	
0.205 2.6226e-14 	0 	0 	
0.215 -2.35058e-24 	0 	0 	
0.225 3.3623e-15 	0 	0 	
0.235 2.28637e-14 	0 	0 	
0.245 -1.8829e-14 	0 	0 	
0.255 -9.61623e-14 	0 	0 	
0.265 -4.7745e-14 	0 	0 	
0.275 1.68117e-14 	0 	0 	
0.285 6.52291e-14 	0 	0 	
0.295 1.47942e-14 	0 	0 	
0.305 -5.71596e-14 	0 	0 	
0.315 1.88287e-14 	0 	0 	
0.325 1.17681e-13 	0 	0 	
0.335 1.27767e-14 	0 	0 	
0.345 -1.45252e-13 	0 	0 	
0.355 -4.03479e-15 	0 	0 	
0.365 9.75075e-14 	0 	0 	
0.375 -1.68116e-14 	0 	0 	
0.385 -1.47942e-14 	0 	0 	
0.395 8.76868e-10 	0 	0 	
0.405 2.05704e-05 	0 	0 	
0.415 0.00498 	0 	0 	
0.425 0.201972 	0 	0 	
0.435 2.51205 	0 	0 	
0.445 12.6804 	0 	0 	
0.455 35.1767 	0 	0 	
0.465 68.0645 	0 	0 	
0.475 103.917 	0 	0 	
0.485 126.87 	0 	0 	
0.495 130.208 	0 	0 	
0.505 130.177 	0 	0 	
0.515 130.139 	0 	0 	
0.525 130.105 	0 	0 	
0.535 130.03 	0 	0 	
0.545 129.133 	0 	0 	
0.555 118.142 	0 	0 	
0.565 61.6651 	0 	0 	
0.575 4.48 	0 	0 	
0.585 0.0604387 	0 	0 	
0.595 0.000157883 	0 	0 	
0.605 4.12504e-09 	0 	0 	
0.615 -1.96696e-14 	0 	0 	
0.625 8.82605e-14 	0 	0 	
0.635 -5.90084e-14 	0 	0 	
0.645 5.79999e-14 	0 	0 	
0.655 -1.66436e-14 	0 	0 	
0.665 -9.73388e-14 	0 	0 	
0.675 4.28693e-14 	0 	0 	
0.685 1.14991e-13 	0 	0 	
0.695 9.12869e-14 	0 	0 	
0.705 -8.8765e-14 	0 	0 	
0.715 3.08496e-24 	0 	0 	
0.725 1.51308e-14 	0 	0 	
0.735 2.52148e-15 	0 	0 	
0.745 -8.81453e-25 	0 	0 	
0.755 5.44694e-14 	0 	0 	
0.765 -4.40721e-25 	0 	0 	
0.775 -9.07828e-14 	0 	0 	
0.785 -1.51304e-15 	0 	0 	
0.795 -6.90954e-14 	0 	0 	
0.805 3.88346e-14 	0 	0 	
0.815 4.53909e-15 	0 	0 	
0.825 6.55649e-14 	0 	0 	
0.835 -5.64867e-14 	0 	0 	
0.845 4.18607e-14 	0 	0 	
0.855 -9.17913e-14 	0 	0 	
0.865 7.5652e-14 	0 	0 	
0.875 -1.26087e-14 	0 	0 	
0.885 4.79131e-14 	0 	0 	
0.895 3.02607e-15 	0 	0 	
0.905 4.23652e-14 	0 	0 	
0.915 -8.42258e-14 	0 	0 	
0.925 4.28694e-14 	0 	0 	
0.935 -1.61389e-14 	0 	0 	
0.945 6.05185e-15 	0 	0 	
0.955 -7.11131e-14 	0 	0 	
0.965 -1.74e-13 	0 	0 	
0.975 1.38696e-13 	0 	0 	
0.985 -1.18018e-13 	0 	0 	
0.995 1.81565e-14 	0 	0 	
