0.005 2.50042e-14 	0 	0 	
0.015 4.40863e-14 	0 	0 	
0.025 8.22943e-14 	0 	0 	
0.035 9.11115e-14 	0 	0 	
0.045 4.11471e-14 	0 	0 	
0.055 -5.87817e-15 	0 	0 	
0.065 -3.23299e-14 	0 	0 	
0.075 -6.17208e-14 	0 	0 	
0.085 -5.58427e-14 	0 	0 	
0.095 -4.38752e-25 	0 	0 	
0.105 4.99645e-14 	0 	0 	
0.115 5.29036e-14 	0 	0 	
0.125 1.76345e-14 	0 	0 	
0.135 -4.70253e-14 	0 	0 	
0.145 -1.17563e-13 	-1.30521e-30 	0 	
0.155 -1.41076e-13 	9.78913e-31 	0 	
0.165 -1.20502e-13 	0 	0 	
0.175 -8.81725e-14 	0 	0 	
0.185 -3.82082e-14 	0 	0 	
0.195 2.93908e-14 	0 	0 	
0.205 6.46599e-14 	0 	0 	
0.215 5.29036e-14 	0 	0 	
0.225 5.58426e-14 	0 	0 	
0.235 6.7599e-14 	3.26303e-30 	0 	
0.245 3.5269e-14 	6.52609e-31 	0 	
0.255 -2.9391e-15 	0 	0 	
0.265 -5.87818e-15 	0 	0 	
0.275 0 	0 	0 	
0.285 0 	0 	0 	
0.295 0 	0 	0 	
0.305 1.17563e-14 	0 	0 	
0.315 3.23299e-14 	0 	0 	
0.325 2.64518e-14 	0 	0 	
0.335 8.81728e-15 	0 	0 	
0.345 2.9391e-15 	0 	0 	
0.355 -1.76345e-14 	0 	0 	
0.365 -3.5269e-14 	0 	0 	
0.375 -3.233e-14 	0 	0 	
0.385 -3.23299e-14 	0 	0 	
0.395 -3.82081e-14 	0 	0 	
0.405 -2.35127e-14 	0 	0 	
0.415 2.64517e-14 	0 	0 	
0.425 4.99645e-14 	0 	0 	
0.435 2.05736e-14 	0 	0 	
0.445 2.9553 	0 	0 	
0.455 16.7635 	0 	0 	
0.465 45.0843 	0 	0 	
0.475 80.5571 	0 	0 	
0.485 109.892 	0 	0 	
0.495 125.545 	0 	0 	
0.505 131.257 	0 	0 	
0.515 132.265 	0 	0 	
0.525 130.754 	0 	0 	
0.535 122.362 	0 	0 	
0.545 93.9365 	0 	0 	
0.555 47.8008 	0 	0 	
0.565 11.9812 	0 	0 	
0.575 0.56685 	-4.89455e-31 	0 	
0.585 8.81727e-15 	0 	0 	
0.595 4.40864e-15 	0 	0 	
0.605 -2.42475e-14 	0 	0 	
0.615 -5.73122e-14 	0 	0 	
0.625 -5.73122e-14 	0 	0 	
0.635 -3.52691e-14 	0 	0 	
0.645 -8.81728e-15 	0 	0 	
0.655 1.10216e-14 	0 	0 	
0.665 -1.10216e-14 	0 	0 	
0.675 -3.52691e-14 	0 	0 	
0.685 -1.10216e-14 	0 	0 	
0.695 2.86561e-14 	0 	0 	
0.705 4.1882e-14 	0 	0 	
0.715 3.96777e-14 	0 	0 	
0.725 3.74734e-14 	0 	0 	
0.735 3.74734e-14 	0 	0 	
0.745 3.30648e-14 	0 	0 	
0.755 1.32259e-14 	0 	0 	
0.765 0 	0 	0 	
0.775 -4.40862e-15 	0 	0 	
0.785 -2.20431e-14 	0 	0 	
0.795 -2.64518e-14 	0 	0 	
0.805 2.2043e-15 	0 	0 	
0.815 2.42475e-14 	-2.93674e-30 	0 	
0.825 1.98389e-14 	0 	0 	
0.835 6.61295e-15 	0 	0 	
0.845 0 	0 	0 	
0.855 -2.20431e-15 	0 	0 	
0.865 -1.10216e-14 	0 	0 	
0.875 -8.81727e-15 	0 	0 	
0.885 8.81726e-15 	0 	0 	
0.895 1.10216e-14 	0 	0 	
0.905 -4.40863e-15 	0 	0 	
0.915 -3.30647e-14 	0 	0 	
0.925 -4.40863e-14 	0 	0 	
0.935 -4.40862e-15 	0 	0 	
0.945 3.08604e-14 	0 	0 	
0.955 3.08604e-14 	0 	0 	
0.965 1.98389e-14 	0 	0 	
0.975 6.61295e-15 	0 	0 	
0.985 0 	0 	0 	
0.995 0 	0 	0 	
