0.005 -9.54613e-14 	0 	0 	
0.015 6.13682e-14 	0 	0 	
0.025 -1.70469e-14 	0 	0 	
0.035 -8.52339e-14 	0 	0 	
0.045 2.0456e-14 	0 	0 	
0.055 -1.19327e-13 	0 	0 	
0.065 -7.8415e-14 	0 	0 	
0.075 -1.19327e-13 	0 	0 	
0.085 9.20519e-14 	0 	0 	
0.095 5.79586e-14 	0 	0 	
0.105 1.46602e-13 	0 	0 	
0.115 6.13679e-14 	0 	0 	
0.125 -3.40935e-14 	0 	0 	
0.135 1.70469e-14 	0 	0 	
0.145 -9.54614e-14 	0 	0 	
0.155 5.11399e-14 	0 	0 	
0.165 5.79585e-14 	0 	0 	
0.175 5.11402e-14 	0 	0 	
0.185 1.39783e-13 	-6.15084e-30 	0 	
0.195 1.87514e-13 	0 	0 	
0.205 1.50011e-13 	0 	0 	
0.215 8.52334e-14 	0 	0 	
0.225 8.52337e-14 	0 	0 	
0.235 1.0228e-13 	0 	0 	
0.245 1.0228e-14 	0 	0 	
0.255 1.87514e-13 	-5.91427e-30 	0 	
0.265 6.81866e-14 	-2.83884e-30 	0 	
0.275 8.52334e-14 	0 	0 	
0.285 1.02281e-14 	0 	0 	
0.295 1.12508e-13 	0 	0 	
0.305 -2.72748e-14 	0 	0 	
0.315 2.38654e-14 	0 	0 	
0.325 8.52332e-14 	0 	0 	
0.335 1.70469e-14 	0 	0 	
0.345 -5.79588e-14 	0 	0 	
0.355 2.55701e-13 	-2.60227e-30 	0 	
0.365 1.27583e-08 	0 	0 	
0.375 8.8998e-06 	0 	0 	
0.385 0.00103213 	0 	0 	
0.395 0.0365983 	0 	0 	
0.405 0.523696 	0 	0 	
0.415 3.47313 	0 	0 	
0.425 12.5178 	0 	0 	
0.435 29.6278 	0 	0 	
0.445 53.5661 	0 	0 	
0.455 81.3537 	0 	0 	
0.465 108.316 	0 	0 	
0.475 125.973 	0 	0 	
0.485 130.104 	0 	0 	
0.495 130.193 	7.14433e-31 	0 	
0.505 130.161 	0 	0 	
0.515 130.136 	0 	0 	
0.525 130.115 	0 	0 	
0.535 130.095 	0 	0 	
0.545 130.075 	0 	0 	
0.555 130.027 	0 	0 	
0.565 129.487 	0 	0 	
0.575 127.936 	0 	0 	
0.585 106.192 	0 	0 	
0.595 26.0286 	0 	0 	
0.605 1.01687 	0 	0 	
0.615 0.0158804 	0 	0 	
0.625 8.94363e-05 	0 	0 	
0.635 9.18948e-08 	0 	0 	
0.645 7.13403e-13 	0 	0 	
0.655 -7.67099e-15 	0 	0 	
0.665 -8.4381e-14 	0 	0 	
0.675 -5.114e-14 	0 	0 	
0.685 3.83551e-14 	0 	0 	
0.695 -5.114e-14 	0 	0 	
0.705 -4.34694e-14 	0 	0 	
0.715 -7.671e-15 	0 	0 	
0.725 -2.557e-14 	0 	0 	
0.735 -1.2785e-14 	0 	0 	
0.745 -8.9495e-14 	0 	0 	
0.755 1.55977e-13 	0 	0 	
0.765 -5.62543e-14 	0 	0 	
0.775 -1.82923e-24 	0 	0 	
0.785 1.2785e-14 	0 	0 	
0.795 -6.64824e-14 	0 	0 	
0.805 3.3241e-14 	0 	0 	
0.815 -1.32219e-24 	0 	0 	
0.825 -2.55702e-14 	0 	0 	
0.835 -8.6938e-14 	0 	0 	
0.845 1.81547e-13 	0 	0 	
0.855 5.3697e-14 	0 	0 	
0.865 -1.30407e-13 	0 	0 	
0.875 -5.114e-14 	0 	0 	
0.885 -1.53421e-14 	0 	0 	
0.895 -8.4381e-14 	0 	0 	
0.905 -5.11401e-15 	0 	0 	
0.915 -7.671e-15 	0 	0 	
0.925 2.557e-14 	0 	0 	
0.935 -7.9267e-14 	0 	0 	
0.945 5.8811e-14 	0 	0 	
0.955 -2.0456e-14 	0 	0 	
0.965 -3.32412e-14 	0 	0 	
0.975 2.557e-14 	0 	0 	
0.985 -4.0912e-14 	0 	0 	
0.995 1.27849e-14 	0 	0 	
