0.005 3.65586e-24 	0 	0 	
0.015 4.40862e-14 	0 	0 	
0.025 2.93908e-14 	0 	0 	
0.035 8.81723e-14 	0 	0 	
0.045 -1.17564e-13 	0 	0 	
0.055 -8.81722e-14 	0 	0 	
0.065 -8.81727e-14 	0 	0 	
0.075 1.82772e-24 	0 	0 	
0.085 2.93907e-14 	0 	0 	
0.095 5.87819e-14 	0 	0 	
0.105 -1.46955e-14 	0 	0 	
0.115 7.3477e-14 	0 	0 	
0.125 1.02868e-13 	0 	0 	
0.135 1.32259e-13 	0 	0 	
0.145 2.05736e-13 	0 	0 	
0.155 2.35127e-13 	0 	0 	
0.165 1.46954e-13 	0 	0 	
0.175 1.17563e-13 	0 	0 	
0.185 1.32259e-13 	0 	0 	
0.195 7.3477e-14 	0 	0 	
0.205 1.46955e-14 	0 	0 	
0.215 -7.34772e-14 	0 	0 	
0.225 -1.6165e-13 	0 	0 	
0.235 -1.9104e-13 	0 	0 	
0.245 -1.32259e-13 	0 	0 	
0.255 -7.34775e-14 	0 	0 	
0.265 -1.32259e-13 	0 	0 	
0.275 -2.20432e-13 	0 	0 	
0.285 3.42404e-12 	0 	0 	
0.295 7.21957e-10 	0 	0 	
0.305 7.10959e-08 	0 	0 	
0.315 3.79556e-06 	0 	0 	
0.325 0.000117935 	0 	0 	
0.335 0.00223893 	0 	0 	
0.345 0.0268666 	0 	0 	
0.355 0.208963 	0 	0 	
0.365 1.07967 	0 	0 	
0.375 3.8441 	0 	0 	
0.385 9.98552 	0 	0 	
0.395 20.2989 	0 	0 	
0.405 34.5168 	0 	0 	
0.415 51.726 	0 	0 	
0.425 70.808 	0 	0 	
0.435 90.4694 	0 	0 	
0.445 108.797 	0 	0 	
0.455 122.607 	0 	0 	
0.465 128.997 	0 	0 	
0.475 130.166 	0 	0 	
0.485 130.193 	0 	0 	
0.495 130.169 	0 	0 	
0.505 130.15 	0 	0 	
0.515 130.134 	0 	0 	
0.525 130.122 	0 	0 	
0.535 130.11 	0 	0 	
0.545 130.1 	0 	0 	
0.555 130.09 	0 	0 	
0.565 130.08 	0 	0 	
0.575 130.069 	0 	0 	
0.585 130.054 	0 	0 	
0.595 130.005 	0 	0 	
0.605 129.663 	0 	0 	
0.615 127.396 	0 	0 	
0.625 115.577 	0 	0 	
0.635 73.2685 	0 	0 	
0.645 15.8955 	0 	0 	
0.655 1.18329 	0 	0 	
0.665 0.0580838 	0 	0 	
0.675 0.00205346 	0 	0 	
0.685 4.88996e-05 	0 	0 	
0.695 7.2423e-07 	0 	0 	
0.705 6.08378e-09 	0 	0 	
0.715 2.56251e-11 	0 	0 	
0.725 -6.61295e-14 	0 	0 	
0.735 -1.21237e-13 	0 	0 	
0.745 -7.71511e-14 	0 	0 	
0.755 -6.61295e-14 	0 	0 	
0.765 -1.65324e-13 	0 	0 	
0.775 -1.21237e-13 	0 	0 	
0.785 -1.4328e-13 	0 	0 	
0.795 -1.10216e-13 	0 	0 	
0.805 -6.61293e-14 	0 	0 	
0.815 -3.30647e-14 	0 	0 	
0.825 -8.81725e-14 	0 	0 	
0.835 -6.31089e-30 	0 	0 	
0.845 6.61292e-14 	0 	0 	
0.855 7.71512e-14 	0 	0 	
0.865 7.71509e-14 	0 	0 	
0.875 -5.00054e-20 	0 	0 	
0.885 9.91941e-14 	0 	0 	
0.895 -4.40863e-14 	0 	0 	
0.905 -3.30648e-14 	0 	0 	
0.915 6.61294e-14 	0 	0 	
0.925 1.4328e-13 	0 	0 	
0.935 2.50014e-20 	0 	0 	
0.945 1.21237e-13 	0 	0 	
0.955 6.61295e-14 	0 	0 	
0.965 3.30647e-14 	0 	0 	
0.975 3.30648e-14 	0 	0 	
0.985 -1.10216e-14 	0 	0 	
0.995 -3.30647e-14 	0 	0 	
