0.005 2.42474e-14 	0 	0 	
0.015 3.23299e-14 	0 	0 	
0.025 3.233e-14 	0 	0 	
0.035 -8.89075e-14 	0 	0 	
0.045 1.6165e-14 	0 	0 	
0.055 -6.466e-14 	0 	0 	
0.065 -4.84949e-14 	0 	0 	
0.075 -1.82062e-22 	0 	0 	
0.085 1.13155e-13 	0 	0 	
0.095 4.8495e-14 	0 	0 	
0.105 -6.466e-14 	0 	0 	
0.115 -3.23299e-14 	0 	0 	
0.125 -2.42471e-14 	0 	0 	
0.135 -2.42475e-14 	0 	0 	
0.145 2.42475e-14 	0 	0 	
0.155 9.69895e-14 	0 	0 	
0.165 -2.42475e-14 	0 	0 	
0.175 -3.233e-14 	0 	0 	
0.185 -3.23299e-14 	0 	0 	
0.195 -3.23301e-14 	0 	0 	
0.205 1.05072e-13 	0 	0 	
0.215 -8.08253e-15 	0 	0 	
0.225 5.65775e-14 	0 	0 	
0.235 -8.08288e-15 	0 	0 	
0.245 -1.13155e-13 	0 	0 	
0.255 -1.17525e-24 	0 	0 	
0.265 -2.42475e-14 	0 	0 	
0.275 -1.6165e-14 	0 	0 	
0.285 -1.05072e-13 	0 	0 	
0.295 -6.466e-14 	0 	0 	
0.305 -7.27421e-14 	0 	0 	
0.315 -2.42475e-14 	4.48668e-30 	0 	
0.325 -8.08249e-15 	0 	0 	
0.335 -1.6165e-14 	-4.48668e-30 	0 	
0.345 -8.89074e-14 	0 	0 	
0.355 9.69899e-14 	-2.24334e-30 	0 	
0.365 2.57961e-09 	8.97336e-30 	0 	
0.375 2.25712e-06 	0 	0 	
0.385 0.00032264 	0 	0 	
0.395 0.0146246 	0 	0 	
0.405 0.258116 	0 	0 	
0.415 2.08949 	0 	0 	
0.425 8.90859 	-1.15048e-31 	0 	
0.435 23.7652 	0 	0 	
0.445 46.4613 	-7.73352e-31 	0 	
0.455 74.2939 	-8.51026e-31 	0 	
0.465 102.811 	-2.15874e-30 	0 	
0.475 123.712 	0 	0 	
0.485 129.949 	0 	0 	
0.495 130.201 	-5.92939e-31 	0 	
0.505 130.167 	-6.78262e-31 	0 	
0.515 130.139 	0 	0 	
0.525 130.117 	0 	0 	
0.535 130.095 	0 	0 	
0.545 130.07 	0 	0 	
0.555 129.956 	0 	0 	
0.565 128.651 	0 	0 	
0.575 118.209 	0 	0 	
0.585 70.3679 	0 	0 	
0.595 9.13746 	0 	0 	
0.605 0.283519 	0 	0 	
0.615 0.00384834 	0 	0 	
0.625 1.91014e-05 	0 	0 	
0.635 1.64152e-08 	0 	0 	
0.645 3.09155e-13 	0 	0 	
0.655 1.81855e-14 	0 	0 	
0.665 -1.81856e-13 	0 	0 	
0.675 -7.27426e-14 	0 	0 	
0.685 6.06186e-15 	0 	0 	
0.695 -6.06182e-15 	0 	0 	
0.705 3.03094e-14 	0 	0 	
0.715 -1.09114e-13 	0 	0 	
0.725 7.27425e-14 	0 	0 	
0.735 -7.88045e-14 	0 	0 	
0.745 9.0928e-14 	0 	0 	
0.755 1.21238e-14 	0 	0 	
0.765 3.03093e-14 	0 	0 	
0.775 6.06184e-14 	0 	0 	
0.785 -1.81856e-14 	0 	0 	
0.795 -4.24332e-14 	0 	0 	
0.805 4.40721e-25 	0 	0 	
0.815 -1.81856e-14 	0 	0 	
0.825 1.03052e-13 	0 	0 	
0.835 1.21237e-14 	0 	0 	
0.845 1.21237e-14 	0 	0 	
0.855 -4.24331e-14 	0 	0 	
0.865 9.0928e-14 	0 	0 	
0.875 -3.03094e-14 	0 	0 	
0.885 -2.42475e-14 	0 	0 	
0.895 -3.03093e-14 	0 	0 	
0.905 -6.06186e-14 	0 	0 	
0.915 -1.21241e-14 	0 	0 	
0.925 -4.84949e-14 	0 	0 	
0.935 -3.63713e-14 	0 	0 	
0.945 1.81856e-14 	0 	0 	
0.955 -8.749e-29 	0 	0 	
0.965 -3.03093e-14 	0 	0 	
0.975 7.88045e-14 	0 	0 	
0.985 -5.45569e-14 	0 	0 	
0.995 -3.03094e-14 	0 	0 	
