0.005 -2.95746e-14 	0 	0 	
0.015 1.26748e-14 	0 	0 	
0.025 5.91491e-14 	0 	0 	
0.035 -6.7599e-14 	0 	0 	
0.045 4.22494e-14 	0 	0 	
0.055 -4.22494e-15 	0 	0 	
0.065 -9.29486e-14 	-8.91218e-30 	0 	
0.075 8.44987e-15 	0 	0 	
0.085 -7.18239e-14 	0 	0 	
0.095 -4.22494e-15 	0 	0 	
0.105 4.64743e-14 	0 	0 	
0.115 -4.22494e-14 	0 	0 	
0.125 -5.49242e-14 	0 	0 	
0.135 1.30973e-13 	0 	0 	
0.145 1.14073e-13 	0 	0 	
0.155 5.91491e-14 	0 	0 	
0.165 9.29486e-14 	0 	0 	
0.175 1.01399e-13 	0 	0 	
0.185 -5.91491e-14 	0 	0 	
0.195 -5.06993e-14 	0 	0 	
0.205 -8.44988e-15 	0 	0 	
0.215 -5.49242e-14 	0 	0 	
0.225 7.18239e-14 	0 	0 	
0.235 -1.26748e-13 	0 	0 	
0.245 4.22494e-14 	0 	0 	
0.255 -1.26748e-14 	0 	0 	
0.265 3.37995e-14 	0 	0 	
0.275 1.24509e-11 	0 	0 	
0.285 2.98352e-09 	0 	0 	
0.295 3.22106e-07 	0 	0 	
0.305 1.6647e-05 	0 	0 	
0.315 0.000462451 	0 	0 	
0.325 0.0076689 	0 	0 	
0.335 0.0785573 	0 	0 	
0.345 0.504259 	0 	0 	
0.355 2.12907 	0 	0 	
0.365 6.30387 	0 	0 	
0.375 14.0555 	-1.46741e-30 	0 	
0.385 25.4272 	0 	0 	
0.395 39.7503 	0 	0 	
0.405 56.1412 	0 	0 	
0.415 73.7198 	0 	0 	
0.425 91.5435 	0 	0 	
0.435 108.244 	0 	0 	
0.445 121.433 	-5.14158e-31 	0 	
0.455 128.403 	1.0542e-30 	0 	
0.465 130.09 	0 	0 	
0.475 130.19 	0 	0 	
0.485 130.168 	3.53646e-31 	0 	
0.495 130.15 	0 	0 	
0.505 130.136 	0 	0 	
0.515 130.125 	1.77011e-31 	0 	
0.525 130.115 	0 	0 	
0.535 130.106 	0 	0 	
0.545 130.096 	0 	0 	
0.555 130.086 	-4.96079e-30 	0 	
0.565 130.073 	0 	0 	
0.575 130.056 	0 	0 	
0.585 130.029 	0 	0 	
0.595 129.993 	0 	0 	
0.605 129.933 	0 	0 	
0.615 129.861 	-2.90938e-30 	0 	
0.625 129.374 	0 	0 	
0.635 108.796 	0 	0 	
0.645 -56.6241 	0 	0 	
0.655 -385.456 	0 	0 	
0.665 18.6154 	0 	0 	
0.675 0.964178 	0 	0 	
0.685 0.0314009 	0 	0 	
0.695 0.000747478 	0 	0 	
0.705 1.09894e-05 	0 	0 	
0.715 8.6116e-08 	0 	0 	
0.725 3.36066e-10 	7.73952e-30 	0 	
0.735 5.35511e-13 	0 	0 	
0.745 -5.70367e-14 	0 	0 	
0.755 3.16869e-15 	0 	0 	
0.765 -4.43616e-14 	-2.04042e-29 	0 	
0.775 5.38676e-14 	0 	0 	
0.785 -3.80244e-14 	0 	0 	
0.795 -5.70364e-14 	0 	0 	
0.805 -6.33738e-15 	0 	0 	
0.815 -9.18924e-14 	1.16093e-29 	0 	
0.825 -1.23579e-13 	5.10105e-30 	0 	
0.835 -3.16873e-14 	0 	0 	
0.845 -4.11929e-14 	0 	0 	
0.855 -6.02052e-14 	0 	0 	
0.865 -5.0699e-14 	0 	0 	
0.875 9.50609e-15 	0 	0 	
0.885 1.55267e-13 	0 	0 	
0.895 -1.07736e-13 	0 	0 	
0.905 6.33748e-15 	0 	0 	
0.915 3.16861e-15 	0 	0 	
0.925 1.90121e-14 	0 	0 	
0.935 9.50644e-15 	0 	0 	
0.945 6.33741e-14 	0 	0 	
0.955 6.65425e-14 	0 	0 	
0.965 -9.50599e-15 	0 	0 	
0.975 5.70367e-14 	0 	0 	
0.985 -2.53494e-14 	0 	0 	
0.995 -2.53496e-14 	0 	0 	
