0.005 -9.01715e-14 	0 	0 	
0.015 4.85537e-14 	0 	0 	
0.025 -8.67031e-14 	0 	0 	
0.035 2.60111e-14 	0 	0 	
0.045 -3.98835e-14 	0 	0 	
0.055 -4.68197e-14 	0 	0 	
0.065 3.2947e-14 	0 	0 	
0.075 7.80327e-14 	0 	0 	
0.085 1.38724e-14 	1.58829e-29 	0 	
0.095 -6.76285e-14 	0 	0 	
0.105 1.59534e-13 	0 	0 	
0.115 9.88413e-14 	-7.94143e-30 	0 	
0.125 1.12714e-13 	7.94143e-30 	0 	
0.135 1.83811e-13 	0 	0 	
0.145 1.04044e-13 	0 	0 	
0.155 -3.12131e-14 	0 	0 	
0.165 4.50856e-14 	0 	0 	
0.175 2.60109e-14 	0 	0 	
0.185 1.38723e-14 	0 	0 	
0.195 -5.72241e-14 	0 	0 	
0.205 -3.29471e-14 	0 	0 	
0.215 1.6647e-13 	0 	0 	
0.225 1.90747e-13 	0 	0 	
0.235 -1.09246e-13 	0 	0 	
0.245 -1.56065e-14 	0 	0 	
0.255 4.33515e-14 	0 	0 	
0.265 2.25428e-14 	0 	0 	
0.275 2.6011e-14 	0 	0 	
0.285 5.37559e-14 	0 	0 	
0.295 -1.26587e-13 	0 	0 	
0.305 -3.64153e-14 	0 	0 	
0.315 1.56065e-14 	0 	0 	
0.325 2.07134e-10 	0 	0 	
0.335 1.21835e-07 	0 	0 	
0.345 1.75553e-05 	0 	0 	
0.355 0.000924689 	0 	0 	
0.365 0.0216991 	0 	0 	
0.375 0.25458 	0 	0 	
0.385 1.62563 	0 	0 	
0.395 6.20875 	0 	0 	
0.405 15.9728 	0 	0 	
0.415 31.1445 	0 	0 	
0.425 50.503 	0 	0 	
0.435 72.3822 	0 	0 	
0.445 94.8273 	0 	0 	
0.455 114.697 	0 	0 	
0.465 126.888 	0 	0 	
0.475 130.045 	0 	0 	
0.485 130.194 	0 	0 	
0.495 130.165 	0 	0 	
0.505 130.141 	0 	0 	
0.515 130.119 	0 	0 	
0.525 130.088 	0 	0 	
0.535 130.036 	0 	0 	
0.545 129.942 	0 	0 	
0.555 129.822 	0 	0 	
0.565 129.727 	0 	0 	
0.575 -4617.56 	0 	0 	
0.585 -8.99416e+07 	0 	0 	
0.595 -5.22644e+08 	0 	0 	
0.605 -2.53046e+08 	0 	0 	
0.615 69395 	0 	0 	
0.625 1910.63 	0 	0 	
0.635 1.08591 	0 	0 	
0.645 0.0227344 	0 	0 	
0.655 0.000266295 	0 	0 	
0.665 1.29625e-06 	0 	0 	
0.675 1.66068e-09 	0 	0 	
0.685 2.57508e-13 	0 	0 	
0.695 -1.70371e-13 	0 	0 	
0.705 -2.34094e-14 	0 	0 	
0.715 -2.47101e-14 	0 	0 	
0.725 -5.20219e-14 	0 	0 	
0.735 -2.47102e-14 	0 	0 	
0.745 5.59235e-14 	0 	0 	
0.755 3.77158e-14 	0 	0 	
0.765 -3.64152e-14 	0 	0 	
0.775 3.90164e-14 	0 	0 	
0.785 1.00142e-13 	0 	0 	
0.795 -1.45661e-13 	0 	0 	
0.805 -2.60109e-14 	0 	0 	
0.815 -3.64154e-14 	0 	0 	
0.825 3.25138e-14 	0 	0 	
0.835 -5.9825e-14 	0 	0 	
0.845 6.11256e-14 	0 	0 	
0.855 4.29179e-14 	0 	0 	
0.865 -3.12131e-14 	0 	0 	
0.875 3.25138e-14 	0 	0 	
0.885 1.43056e-14 	0 	0 	
0.895 2.21094e-14 	0 	0 	
0.905 -4.94209e-14 	0 	0 	
0.915 -5.85243e-14 	0 	0 	
0.925 1.95084e-14 	0 	0 	
0.935 -8.58363e-14 	0 	0 	
0.945 1.4306e-14 	0 	0 	
0.955 9.10385e-15 	0 	0 	
0.965 -1.04043e-14 	0 	0 	
0.975 -3.46535e-29 	0 	0 	
0.985 -7.41313e-14 	0 	0 	
0.995 4.42187e-14 	0 	0 	
