0.005 1.46953e-14 	0 	0 	
0.015 5.87815e-14 	0 	0 	
0.025 2.93907e-14 	0 	0 	
0.035 -7.34771e-14 	0 	0 	
0.045 -1.02868e-13 	0 	0 	
0.055 -8.81725e-14 	0 	0 	
0.065 -5.87815e-14 	0 	0 	
0.075 -7.34772e-14 	0 	0 	
0.085 -2.93906e-14 	0 	0 	
0.095 2.93907e-14 	0 	0 	
0.105 1.46955e-14 	0 	0 	
0.115 1.46955e-14 	0 	0 	
0.125 1.6165e-13 	0 	0 	
0.135 1.6165e-13 	0 	0 	
0.145 2.49822e-13 	0 	0 	
0.155 2.20432e-13 	0 	0 	
0.165 2.35127e-13 	0 	0 	
0.175 2.20431e-13 	0 	0 	
0.185 1.17564e-13 	0 	0 	
0.195 1.46957e-14 	0 	0 	
0.205 -1.46957e-14 	0 	0 	
0.215 -4.40863e-14 	0 	0 	
0.225 -4.40863e-14 	0 	0 	
0.235 -1.32259e-13 	0 	0 	
0.245 -1.91041e-13 	0 	0 	
0.255 -2.64518e-13 	0 	0 	
0.265 -2.05736e-13 	0 	0 	
0.275 -1.17563e-13 	0 	0 	
0.285 -1.46954e-13 	0 	0 	
0.295 1.46956e-14 	0 	0 	
0.305 4.75396e-11 	0 	0 	
0.315 9.3079e-09 	0 	0 	
0.325 8.36976e-07 	0 	0 	
0.335 3.90535e-05 	0 	0 	
0.345 0.00102276 	0 	0 	
0.355 0.0158399 	0 	0 	
0.365 0.150444 	0 	0 	
0.375 0.903816 	0 	0 	
0.385 3.57892 	0 	0 	
0.395 9.95733 	0 	0 	
0.405 21.0891 	0 	0 	
0.415 36.7038 	0 	0 	
0.425 55.6923 	0 	0 	
0.435 76.6311 	0 	0 	
0.445 97.7043 	0 	0 	
0.455 115.925 	0 	0 	
0.465 126.942 	0 	0 	
0.475 130.001 	0 	0 	
0.485 130.203 	0 	0 	
0.495 130.177 	0 	0 	
0.505 130.155 	0 	0 	
0.515 130.137 	0 	0 	
0.525 130.122 	0 	0 	
0.535 130.109 	0 	0 	
0.545 130.097 	0 	0 	
0.555 130.085 	0 	0 	
0.565 130.073 	0 	0 	
0.575 130.056 	0 	0 	
0.585 129.989 	0 	0 	
0.595 129.484 	0 	0 	
0.605 126.087 	0 	0 	
0.615 108.941 	0 	0 	
0.625 56.1187 	0 	0 	
0.635 8.28296 	0 	0 	
0.645 0.495657 	0 	0 	
0.655 0.0199387 	0 	0 	
0.665 0.000535828 	0 	0 	
0.675 8.79293e-06 	0 	0 	
0.685 7.91773e-08 	0 	0 	
0.695 3.39597e-10 	0 	0 	
0.705 5.06993e-13 	0 	0 	
0.715 -7.71511e-14 	0 	0 	
0.725 -7.71509e-14 	0 	0 	
0.735 -9.91943e-14 	0 	0 	
0.745 -1.10216e-13 	0 	0 	
0.755 -9.91941e-14 	0 	0 	
0.765 -1.10216e-13 	0 	0 	
0.775 -1.76345e-13 	0 	0 	
0.785 -1.54302e-13 	0 	0 	
0.795 -1.4328e-13 	0 	0 	
0.805 -2.20431e-14 	0 	0 	
0.815 6.61292e-14 	0 	0 	
0.825 3.30647e-14 	0 	0 	
0.835 1.10212e-14 	0 	0 	
0.845 2.20431e-14 	0 	0 	
0.855 4.40863e-14 	0 	0 	
0.865 8.81726e-14 	0 	0 	
0.875 4.40862e-14 	0 	0 	
0.885 6.61294e-14 	0 	0 	
0.895 4.40861e-14 	0 	0 	
0.905 -2.20431e-14 	0 	0 	
0.915 3.30647e-14 	0 	0 	
0.925 3.30647e-14 	0 	0 	
0.935 2.20432e-14 	0 	0 	
0.945 6.61297e-14 	0 	0 	
0.955 1.10216e-13 	0 	0 	
0.965 5.51079e-14 	0 	0 	
0.975 -2.20428e-14 	0 	0 	
0.985 2.20432e-14 	0 	0 	
0.995 -3.30647e-14 	0 	0 	
