0.005 4.90141e-14 	0 	0 	
0.015 8.22944e-14 	0 	0 	
0.025 9.99288e-14 	0 	0 	
0.035 9.11115e-14 	0 	0 	
0.045 3.52689e-14 	0 	0 	
0.055 -2.35127e-14 	0 	0 	
0.065 -2.93909e-14 	0 	0 	
0.075 -2.05736e-14 	0 	0 	
0.085 -2.64518e-14 	0 	0 	
0.095 -1.17563e-14 	0 	0 	
0.105 1.17563e-14 	0 	0 	
0.115 1.17563e-14 	0 	0 	
0.125 -1.17563e-14 	0 	0 	
0.135 -5.58426e-14 	0 	0 	
0.145 -9.99289e-14 	-4.40511e-30 	0 	
0.155 -1.2932e-13 	0 	0 	
0.165 -1.64589e-13 	0 	0 	
0.175 -2.02797e-13 	0 	0 	
0.185 -2.05736e-13 	0 	0 	
0.195 -1.52832e-13 	0 	0 	
0.205 -6.46599e-14 	0 	0 	
0.215 8.81722e-15 	0 	0 	
0.225 5.87817e-14 	0 	0 	
0.235 8.22944e-14 	8.81022e-30 	0 	
0.245 6.7599e-14 	0 	0 	
0.255 5.87817e-14 	0 	0 	
0.265 5.58426e-14 	0 	0 	
0.275 2.64518e-14 	0 	0 	
0.285 2.93908e-15 	0 	0 	
0.295 0 	0 	0 	
0.305 0 	0 	0 	
0.315 -2.93907e-15 	0 	0 	
0.325 2.9391e-15 	0 	0 	
0.335 8.81725e-15 	0 	0 	
0.345 -2.9391e-15 	0 	0 	
0.355 -5.87818e-15 	0 	0 	
0.365 -1.17563e-14 	0 	0 	
0.375 -4.40863e-14 	0 	0 	
0.385 0.000129265 	0 	0 	
0.395 1.95795 	0 	0 	
0.405 10.3681 	0 	0 	
0.415 26.8422 	0 	0 	
0.425 48.2464 	0 	0 	
0.435 71.205 	0 	0 	
0.445 93.3666 	0 	0 	
0.455 112.05 	0 	0 	
0.465 123.927 	0 	0 	
0.475 128.663 	0 	0 	
0.485 130.022 	0 	0 	
0.495 130.516 	0 	0 	
0.505 130.722 	0 	0 	
0.515 130.824 	0 	0 	
0.525 130.541 	0 	0 	
0.535 129.866 	0 	0 	
0.545 129.367 	0 	0 	
0.555 129.258 	0 	0 	
0.565 129.263 	0 	0 	
0.575 129.98 	-3.37383e-30 	0 	
0.585 130.148 	-1.3559e-30 	0 	
0.595 125.1 	0 	0 	
0.605 105.21 	0 	0 	
0.615 64.3013 	0 	0 	
0.625 22.2908 	0 	0 	
0.635 2.9085 	0 	0 	
0.645 -3.74734e-14 	0 	0 	
0.655 1.10215e-14 	0 	0 	
0.665 2.18129e-25 	0 	0 	
0.675 -8.81725e-15 	0 	0 	
0.685 1.76345e-14 	0 	0 	
0.695 4.62906e-14 	0 	0 	
0.705 6.17208e-14 	0 	0 	
0.715 5.73122e-14 	0 	0 	
0.725 6.61295e-14 	0 	0 	
0.735 8.81728e-14 	0 	0 	
0.745 6.61295e-14 	0 	0 	
0.755 2.42475e-14 	0 	0 	
0.765 4.40863e-15 	0 	0 	
0.775 -4.40862e-15 	0 	0 	
0.785 -2.20431e-14 	0 	0 	
0.795 -2.64518e-14 	0 	0 	
0.805 2.2043e-15 	0 	0 	
0.815 2.42475e-14 	-6.60765e-30 	0 	
0.825 1.98389e-14 	0 	0 	
0.835 -2.2043e-15 	0 	0 	
0.845 -2.42474e-14 	0 	0 	
0.855 -3.30647e-14 	0 	0 	
0.865 -4.1882e-14 	0 	0 	
0.875 -4.8495e-14 	0 	0 	
0.885 -5.73122e-14 	0 	0 	
0.895 -7.27424e-14 	0 	0 	
0.905 -5.73122e-14 	0 	0 	
0.915 -2.20432e-14 	0 	0 	
0.925 -1.32259e-14 	0 	0 	
0.935 -1.32259e-14 	0 	0 	
0.945 1.98388e-14 	0 	0 	
0.955 7.27423e-14 	0 	0 	
0.965 9.25812e-14 	0 	0 	
0.975 7.93553e-14 	0 	0 	
0.985 6.61294e-14 	0 	0 	
0.995 4.89007e-14 	0 	0 	
