0.005 -1.26748e-14 	0 	0 	
0.015 -4.22494e-14 	0 	0 	
0.025 3.37995e-14 	0 	0 	
0.035 4.22494e-15 	0 	0 	
0.045 -1.68998e-14 	0 	0 	
0.055 1.68997e-13 	0 	0 	
0.065 -1.30973e-13 	-5.86329e-30 	0 	
0.075 -1.98572e-13 	0 	0 	
0.085 -1.60548e-13 	0 	0 	
0.095 8.44987e-15 	0 	0 	
0.105 3.80244e-14 	0 	0 	
0.115 6.33741e-14 	0 	0 	
0.125 -1.18298e-13 	0 	0 	
0.135 -5.49242e-14 	0 	0 	
0.145 1.26748e-14 	0 	0 	
0.155 -1.56323e-13 	0 	0 	
0.165 -8.02738e-14 	0 	0 	
0.175 9.29486e-14 	0 	0 	
0.185 -3.80244e-14 	0 	0 	
0.195 1.14073e-13 	0 	0 	
0.205 1.68998e-13 	0 	0 	
0.215 2.53496e-14 	0 	0 	
0.225 -2.53496e-14 	0 	0 	
0.235 -1.14073e-13 	0 	0 	
0.245 -5.49242e-14 	0 	0 	
0.255 2.11247e-14 	0 	0 	
0.265 -3.80244e-14 	0 	0 	
0.275 -6.7599e-14 	0 	0 	
0.285 -6.33741e-14 	0 	0 	
0.295 -8.44988e-15 	0 	0 	
0.305 8.87237e-14 	0 	0 	
0.315 1.39423e-13 	0 	0 	
0.325 4.22494e-15 	0 	0 	
0.335 -3.37995e-14 	0 	0 	
0.345 3.25075e-10 	0 	0 	
0.355 2.68549e-07 	0 	0 	
0.365 4.55909e-05 	0 	0 	
0.375 0.00259925 	0 	0 	
0.385 0.058759 	0 	0 	
0.395 0.618826 	0 	0 	
0.405 3.4482 	0 	0 	
0.415 11.4496 	0 	0 	
0.425 26.1524 	0 	0 	
0.435 46.706 	0 	0 	
0.445 71.0187 	2.03476e-30 	0 	
0.455 96.2773 	0 	0 	
0.465 117.738 	0 	0 	
0.475 128.564 	0 	0 	
0.485 130.188 	3.53844e-31 	0 	
0.495 130.185 	0 	0 	
0.505 130.157 	0 	0 	
0.515 130.136 	1.77777e-31 	0 	
0.525 130.118 	0 	0 	
0.535 130.102 	0 	0 	
0.545 130.087 	0 	0 	
0.555 130.071 	-4.37388e-30 	0 	
0.565 130.041 	0 	0 	
0.575 129.835 	0 	0 	
0.585 125.797 	0 	0 	
0.595 101.883 	0 	0 	
0.605 50.3296 	0 	0 	
0.615 4.25218 	0 	0 	
0.625 0.109915 	0 	0 	
0.635 0.00137731 	0 	0 	
0.645 7.07607e-06 	0 	0 	
0.655 9.14388e-09 	0 	0 	
0.665 5.67198e-13 	0 	0 	
0.675 -2.85181e-14 	0 	0 	
0.685 7.28802e-14 	0 	0 	
0.695 -3.1687e-14 	0 	0 	
0.705 9.50598e-15 	0 	0 	
0.715 6.97115e-14 	0 	0 	
0.725 7.6049e-14 	4.92515e-30 	0 	
0.735 -5.06992e-14 	0 	0 	
0.745 -4.11929e-14 	0 	0 	
0.755 -6.33742e-14 	0 	0 	
0.765 -1.39423e-13 	-1.33683e-29 	0 	
0.775 -7.92178e-14 	0 	0 	
0.785 6.97111e-14 	0 	0 	
0.795 -8.55545e-14 	0 	0 	
0.805 2.85183e-14 	0 	0 	
0.815 -9.50606e-15 	7.03593e-30 	0 	
0.825 6.65426e-14 	3.16617e-30 	0 	
0.835 -7.6049e-14 	0 	0 	
0.845 1.07736e-13 	0 	0 	
0.855 -3.80245e-14 	0 	0 	
0.865 -6.97118e-14 	0 	0 	
0.875 -1.20411e-13 	0 	0 	
0.885 -9.50609e-15 	0 	0 	
0.895 -1.65271e-25 	0 	0 	
0.905 2.53494e-14 	0 	0 	
0.915 -1.58433e-14 	0 	0 	
0.925 -1.10905e-13 	0 	0 	
0.935 5.06995e-14 	0 	0 	
0.945 3.48558e-14 	0 	0 	
0.955 4.75303e-14 	0 	0 	
0.965 4.43618e-14 	0 	0 	
0.975 8.87241e-14 	0 	0 	
0.985 2.53495e-14 	0 	0 	
0.995 3.16869e-14 	0 	0 	
