0.005 -1.46954e-14 	0 	0 	
0.015 -1.46954e-14 	0 	0 	
0.025 -1.02868e-13 	0 	0 	
0.035 1.46953e-14 	0 	0 	
0.045 -7.34771e-14 	0 	0 	
0.055 2.93908e-14 	0 	0 	
0.065 -2.93908e-14 	0 	0 	
0.075 -7.34772e-14 	0 	0 	
0.085 2.93907e-14 	0 	0 	
0.095 -4.40862e-14 	0 	0 	
0.105 0 	0 	0 	
0.115 -1.17563e-13 	0 	0 	
0.125 2.93909e-14 	0 	0 	
0.135 0 	0 	0 	
0.145 1.46954e-14 	0 	0 	
0.155 -1.46955e-14 	0 	0 	
0.165 4.40865e-14 	0 	0 	
0.175 -1.02868e-13 	0 	0 	
0.185 4.40862e-14 	0 	0 	
0.195 1.46952e-14 	0 	0 	
0.205 1.46953e-14 	0 	0 	
0.215 2.9391e-14 	0 	0 	
0.225 -8.81727e-14 	0 	0 	
0.235 1.46954e-14 	0 	0 	
0.245 0 	0 	0 	
0.255 4.40862e-14 	0 	0 	
0.265 -1.50005e-19 	0 	0 	
0.275 0 	0 	0 	
0.285 1.46954e-14 	0 	0 	
0.295 -2.93908e-14 	0 	0 	
0.305 1.46954e-14 	0 	0 	
0.315 1.46954e-14 	0 	0 	
0.325 0 	0 	0 	
0.335 4.40861e-14 	0 	0 	
0.345 -2.93907e-14 	0 	0 	
0.355 0 	0 	0 	
0.365 -5.87818e-14 	0 	0 	
0.375 0 	0 	0 	
0.385 -1.46954e-14 	0 	0 	
0.395 1.46954e-14 	0 	0 	
0.405 -1.46954e-14 	0 	0 	
0.415 0 	0 	0 	
0.425 0 	0 	0 	
0.435 -2.93908e-14 	0 	0 	
0.445 0 	0 	0 	
0.455 2.93908e-14 	0 	0 	
0.465 0 	0 	0 	
0.475 2.93909e-14 	0 	0 	
0.485 -1.46952e-14 	0 	0 	
0.495 21.6606 	0 	0 	
0.505 64.7258 	0 	0 	
0.515 -2.20432e-14 	0 	0 	
0.525 -1.10216e-14 	0 	0 	
0.535 -9.91939e-14 	0 	0 	
0.545 -2.2043e-14 	0 	0 	
0.555 4.40864e-14 	0 	0 	
0.565 3.30648e-14 	0 	0 	
0.575 3.30648e-14 	0 	0 	
0.585 2.20433e-14 	0 	0 	
0.595 -4.40862e-14 	0 	0 	
0.605 3.30647e-14 	0 	0 	
0.615 -3.30647e-14 	0 	0 	
0.625 -4.99959e-20 	0 	0 	
0.635 3.90261e-40 	0 	0 	
0.645 -2.20433e-14 	0 	0 	
0.655 -1.10216e-14 	0 	0 	
0.665 -2.72627e-24 	0 	0 	
0.675 2.20435e-14 	0 	0 	
0.685 2.20432e-14 	0 	0 	
0.695 -5.51079e-14 	0 	0 	
0.705 1.10217e-14 	0 	0 	
0.715 -1.10216e-14 	0 	0 	
0.725 8.81727e-14 	0 	0 	
0.735 -4.40863e-14 	0 	0 	
0.745 -1.10217e-14 	0 	0 	
0.755 5.51079e-14 	0 	0 	
0.765 5.51079e-14 	0 	0 	
0.775 -5.51079e-14 	0 	0 	
0.785 -4.40862e-14 	0 	0 	
0.795 -1.10218e-14 	0 	0 	
0.805 6.61294e-14 	0 	0 	
0.815 3.30648e-14 	0 	0 	
0.825 6.61294e-14 	0 	0 	
0.835 -1.26218e-29 	0 	0 	
0.845 -4.40863e-14 	0 	0 	
0.855 -4.40862e-14 	0 	0 	
0.865 2.20431e-14 	0 	0 	
0.875 1.10216e-14 	0 	0 	
0.885 1.10216e-14 	0 	0 	
0.895 -9.99932e-20 	0 	0 	
0.905 -4.40864e-14 	0 	0 	
0.915 3.30649e-14 	0 	0 	
0.925 1.10215e-14 	0 	0 	
0.935 -4.40862e-14 	0 	0 	
0.945 -7.7151e-14 	0 	0 	
0.955 7.71508e-14 	0 	0 	
0.965 -4.40863e-14 	0 	0 	
0.975 1.10216e-14 	0 	0 	
0.985 -4.40863e-14 	0 	0 	
0.995 -1.10216e-14 	0 	0 	
