0.005 5.91491e-14 	0 	0 	
0.015 2.95746e-14 	0 	0 	
0.025 -3.37995e-14 	0 	0 	
0.035 -2.53496e-14 	0 	0 	
0.045 1.14073e-13 	0 	0 	
0.055 7.60489e-14 	0 	0 	
0.065 -2.53496e-14 	-4.92515e-30 	0 	
0.075 1.68998e-14 	0 	0 	
0.085 5.91491e-14 	0 	0 	
0.095 1.68997e-14 	0 	0 	
0.105 4.12775e-29 	0 	0 	
0.115 -4.22494e-15 	0 	0 	
0.125 -2.11247e-14 	0 	0 	
0.135 -1.68997e-14 	0 	0 	
0.145 -1.68998e-14 	0 	0 	
0.155 1.81672e-13 	0 	0 	
0.165 -8.44987e-14 	0 	0 	
0.175 -4.64743e-14 	0 	0 	
0.185 -1.26748e-14 	0 	0 	
0.195 1.68997e-14 	0 	0 	
0.205 1.01399e-13 	0 	0 	
0.215 -1.26748e-14 	0 	0 	
0.225 -2.11247e-14 	0 	0 	
0.235 5.49242e-14 	0 	0 	
0.245 -8.44988e-15 	0 	0 	
0.255 -3.80244e-14 	0 	0 	
0.265 4.22494e-15 	0 	0 	
0.275 8.02738e-14 	0 	0 	
0.285 -5.91491e-14 	0 	0 	
0.295 6.7599e-14 	0 	0 	
0.305 3.80244e-14 	0 	0 	
0.315 1.26748e-14 	0 	0 	
0.325 5.49242e-14 	0 	0 	
0.335 9.71736e-14 	0 	0 	
0.345 3.80244e-14 	0 	0 	
0.355 -1.39423e-13 	0 	0 	
0.365 5.72732e-11 	0 	0 	
0.375 3.46195e-07 	0 	0 	
0.385 0.000106649 	0 	0 	
0.395 0.00712329 	0 	0 	
0.405 0.166434 	0 	0 	
0.415 1.62552 	0 	0 	
0.425 7.72525 	0 	0 	
0.435 21.8805 	0 	0 	
0.445 44.2155 	1.60327e-30 	0 	
0.455 72.0362 	0 	0 	
0.465 100.957 	0 	0 	
0.475 122.909 	0 	0 	
0.485 129.891 	7.06999e-31 	0 	
0.495 130.201 	0 	0 	
0.505 130.167 	0 	0 	
0.515 130.14 	1.79635e-31 	0 	
0.525 130.117 	0 	0 	
0.535 130.096 	0 	0 	
0.545 130.073 	0 	0 	
0.555 129.998 	-3.40268e-30 	0 	
0.565 128.632 	0 	0 	
0.575 118.603 	0 	0 	
0.585 76.381 	0 	0 	
0.595 10.2658 	0 	0 	
0.605 0.271461 	0 	0 	
0.615 0.00298739 	0 	0 	
0.625 9.04009e-06 	0 	0 	
0.635 2.26403e-09 	0 	0 	
0.645 3.48561e-14 	0 	0 	
0.655 6.3374e-14 	0 	0 	
0.665 -4.43621e-14 	0 	0 	
0.675 -6.65425e-14 	0 	0 	
0.685 5.06995e-14 	0 	0 	
0.695 -2.21806e-14 	0 	0 	
0.705 8.55548e-14 	0 	0 	
0.715 -4.11934e-14 	0 	0 	
0.725 1.90122e-14 	4.22156e-30 	0 	
0.735 -9.82296e-14 	0 	0 	
0.745 2.53494e-14 	0 	0 	
0.755 4.75309e-14 	0 	0 	
0.765 -7.6049e-14 	-1.19611e-29 	0 	
0.775 -8.5555e-14 	0 	0 	
0.785 6.33741e-14 	0 	0 	
0.795 8.87237e-14 	0 	0 	
0.805 6.65429e-14 	0 	0 	
0.815 -8.55549e-14 	5.62874e-30 	0 	
0.825 5.38681e-14 	2.99027e-30 	0 	
0.835 -9.82298e-14 	0 	0 	
0.845 1.26747e-14 	0 	0 	
0.855 4.11933e-14 	0 	0 	
0.865 -1.26748e-13 	0 	0 	
0.875 -1.10905e-13 	0 	0 	
0.885 6.33738e-14 	0 	0 	
0.895 -4.75306e-14 	0 	0 	
0.905 1.26747e-14 	0 	0 	
0.915 8.23859e-14 	0 	0 	
0.925 8.87238e-14 	0 	0 	
0.935 8.23859e-14 	0 	0 	
0.945 3.16877e-15 	0 	0 	
0.955 -6.33742e-14 	0 	0 	
0.965 -5.70368e-14 	0 	0 	
0.975 7.28802e-14 	0 	0 	
0.985 6.33741e-14 	0 	0 	
0.995 8.55551e-14 	0 	0 	
