0.005 4.90141e-14 	0 	0 	
0.015 8.22944e-14 	0 	0 	
0.025 9.99288e-14 	0 	0 	
0.035 1.20502e-13 	0 	0 	
0.045 1.38137e-13 	0 	0 	
0.055 1.20503e-13 	0 	0 	
0.065 6.17209e-14 	0 	0 	
0.075 -2.35126e-14 	0 	0 	
0.085 -7.93551e-14 	0 	0 	
0.095 -8.52334e-14 	0 	0 	
0.105 -9.99289e-14 	0 	0 	
0.115 -1.17564e-13 	0 	0 	
0.125 -1.41076e-13 	0 	0 	
0.135 -2.02797e-13 	0 	0 	
0.145 -2.5864e-13 	-1.79468e-30 	0 	
0.155 -2.55701e-13 	1.63152e-30 	0 	
0.165 -2.02797e-13 	0 	0 	
0.175 -1.49893e-13 	0 	0 	
0.185 -9.11117e-14 	0 	0 	
0.195 -5.87815e-15 	0 	0 	
0.205 4.99645e-14 	0 	0 	
0.215 5.58427e-14 	0 	0 	
0.225 8.22944e-14 	1.63152e-31 	0 	
0.235 1.11685e-13 	8.15761e-30 	0 	
0.245 8.81726e-14 	6.52609e-31 	0 	
0.255 6.17208e-14 	0 	0 	
0.265 5.58427e-14 	0 	0 	
0.275 4.70254e-14 	0 	0 	
0.285 4.99645e-14 	0 	0 	
0.295 6.46599e-14 	0 	0 	
0.305 7.05381e-14 	0 	0 	
0.315 7.93553e-14 	0 	0 	
0.325 9.11116e-14 	0 	0 	
0.335 6.7599e-14 	0 	0 	
0.345 -5.87815e-15 	0 	0 	
0.355 -8.52335e-14 	0 	0 	
0.365 -1.32259e-13 	0 	0 	
0.375 -1.41076e-13 	0 	0 	
0.385 0.33681 	0 	0 	
0.395 4.06682 	0 	0 	
0.405 15.3621 	0 	0 	
0.415 33.5784 	0 	0 	
0.425 54.9663 	0 	0 	
0.435 76.9135 	0 	0 	
0.445 97.2985 	0 	0 	
0.455 113.723 	0 	0 	
0.465 124.011 	0 	0 	
0.475 128.283 	0 	0 	
0.485 129.492 	0 	0 	
0.495 130.078 	0 	0 	
0.505 130.585 	0 	0 	
0.515 130.851 	0 	0 	
0.525 130.659 	0 	0 	
0.535 130.038 	0 	0 	
0.545 129.394 	0 	0 	
0.555 129.181 	0 	0 	
0.565 129.485 	0 	0 	
0.575 129.994 	-2.36873e-30 	0 	
0.585 130.101 	-1.18286e-30 	0 	
0.595 128.076 	0 	0 	
0.605 116.306 	0 	0 	
0.615 83.5359 	0 	0 	
0.625 38.1504 	0 	0 	
0.635 7.84646 	0 	0 	
0.645 0.0196798 	0 	0 	
0.655 -2.86561e-14 	0 	0 	
0.665 -1.54302e-14 	0 	0 	
0.675 -1.32259e-14 	0 	0 	
0.685 1.98388e-14 	0 	0 	
0.695 6.17208e-14 	0 	0 	
0.705 5.51079e-14 	0 	0 	
0.715 3.08604e-14 	0 	0 	
0.725 5.73123e-14 	0 	0 	
0.735 9.47857e-14 	0 	0 	
0.745 7.93554e-14 	0 	0 	
0.755 4.40863e-14 	0 	0 	
0.765 3.08604e-14 	0 	0 	
0.775 2.86561e-14 	0 	0 	
0.785 1.32259e-14 	0 	0 	
0.795 2.20432e-15 	0 	0 	
0.805 1.76345e-14 	0 	0 	
0.815 3.30647e-14 	-6.85239e-30 	0 	
0.825 2.64518e-14 	0 	0 	
0.835 8.81725e-15 	0 	0 	
0.845 -6.61295e-15 	0 	0 	
0.855 -2.42475e-14 	0 	0 	
0.865 -4.62906e-14 	0 	0 	
0.875 -6.39251e-14 	0 	0 	
0.885 -6.83338e-14 	0 	0 	
0.895 -7.05381e-14 	0 	0 	
0.905 -6.39251e-14 	0 	0 	
0.915 -4.1882e-14 	0 	0 	
0.925 -3.08604e-14 	0 	0 	
0.935 -1.76345e-14 	0 	0 	
0.945 1.32259e-14 	0 	0 	
0.955 4.84949e-14 	0 	0 	
0.965 8.59683e-14 	0 	0 	
0.975 1.08011e-13 	0 	0 	
0.985 9.69899e-14 	0 	0 	
0.995 6.50767e-14 	0 	0 	
