0.005 2.50042e-14 	0 	0 	
0.015 4.40863e-14 	0 	0 	
0.025 8.22943e-14 	0 	0 	
0.035 9.11115e-14 	0 	0 	
0.045 3.52689e-14 	0 	0 	
0.055 -1.76345e-14 	0 	0 	
0.065 -3.5269e-14 	0 	0 	
0.075 -5.29035e-14 	0 	0 	
0.085 -4.40863e-14 	0 	0 	
0.095 5.87815e-15 	0 	0 	
0.105 4.70253e-14 	0 	0 	
0.115 4.99645e-14 	0 	0 	
0.125 1.76345e-14 	0 	0 	
0.135 -4.70253e-14 	0 	0 	
0.145 -1.17563e-13 	-3.26305e-31 	0 	
0.155 -1.41076e-13 	0 	0 	
0.165 -1.20502e-13 	0 	0 	
0.175 -8.81725e-14 	0 	0 	
0.185 -3.82082e-14 	0 	0 	
0.195 2.93908e-14 	0 	0 	
0.205 6.46599e-14 	0 	0 	
0.215 5.29036e-14 	0 	0 	
0.225 5.58426e-14 	0 	0 	
0.235 6.7599e-14 	6.52609e-31 	0 	
0.245 3.5269e-14 	0 	0 	
0.255 -2.9391e-15 	0 	0 	
0.265 -5.87818e-15 	0 	0 	
0.275 0 	0 	0 	
0.285 0 	0 	0 	
0.295 5.87817e-15 	0 	0 	
0.305 2.64518e-14 	0 	0 	
0.315 4.99644e-14 	0 	0 	
0.325 5.29035e-14 	0 	0 	
0.335 2.93909e-14 	0 	0 	
0.345 -1.46954e-14 	0 	0 	
0.355 -4.99645e-14 	0 	0 	
0.365 -5.29036e-14 	0 	0 	
0.375 -4.40863e-14 	0 	0 	
0.385 -3.82081e-14 	0 	0 	
0.395 -3.82081e-14 	0 	0 	
0.405 -2.35127e-14 	0 	0 	
0.415 2.64517e-14 	0 	0 	
0.425 4.99645e-14 	0 	0 	
0.435 0.0324572 	0 	0 	
0.445 3.54411 	0 	0 	
0.455 18.139 	0 	0 	
0.465 45.8284 	0 	0 	
0.475 79.182 	0 	0 	
0.485 107.044 	0 	0 	
0.495 123.392 	0 	0 	
0.505 131.415 	0 	0 	
0.515 134.399 	0 	0 	
0.525 132.699 	0 	0 	
0.535 122.485 	0 	0 	
0.545 92.5006 	0 	0 	
0.555 46.0786 	0 	0 	
0.565 11.0843 	0 	0 	
0.575 0.407315 	0 	0 	
0.585 8.81727e-15 	0 	0 	
0.595 4.40864e-15 	0 	0 	
0.605 -2.42475e-14 	0 	0 	
0.615 -5.95165e-14 	0 	0 	
0.625 -7.27424e-14 	0 	0 	
0.635 -4.8495e-14 	0 	0 	
0.645 -4.40865e-15 	0 	0 	
0.655 4.40863e-15 	0 	0 	
0.665 -2.64518e-14 	0 	0 	
0.675 -2.64518e-14 	0 	0 	
0.685 1.76345e-14 	0 	0 	
0.695 4.84949e-14 	0 	0 	
0.705 5.29036e-14 	0 	0 	
0.715 5.51079e-14 	0 	0 	
0.725 5.06993e-14 	0 	0 	
0.735 2.86561e-14 	0 	0 	
0.745 6.61295e-15 	0 	0 	
0.755 -4.40862e-15 	0 	0 	
0.765 -2.20431e-14 	0 	0 	
0.775 -3.5269e-14 	0 	0 	
0.785 -2.64518e-14 	0 	0 	
0.795 -2.42474e-14 	0 	0 	
0.805 -2.42475e-14 	0 	0 	
0.815 -8.81726e-15 	-4.89455e-31 	0 	
0.825 4.40863e-15 	0 	0 	
0.835 1.98388e-14 	0 	0 	
0.845 2.64518e-14 	0 	0 	
0.855 8.81726e-15 	0 	0 	
0.865 -6.61293e-15 	0 	0 	
0.875 1.10216e-14 	0 	0 	
0.885 3.96776e-14 	0 	0 	
0.895 3.30647e-14 	0 	0 	
0.905 4.40863e-15 	0 	0 	
0.915 -1.98388e-14 	0 	0 	
0.925 -2.64518e-14 	0 	0 	
0.935 -1.32259e-14 	0 	0 	
0.945 8.81727e-15 	0 	0 	
0.955 2.86561e-14 	0 	0 	
0.965 2.20432e-14 	0 	0 	
0.975 4.40863e-15 	0 	0 	
0.985 0 	0 	0 	
0.995 0 	0 	0 	
