0.005 4.22494e-15 	0 	0 	
0.015 1.05623e-13 	0 	0 	
0.025 -7.60489e-14 	0 	0 	
0.035 -1.35198e-13 	0 	0 	
0.045 -2.53496e-14 	0 	0 	
0.055 5.91491e-14 	0 	0 	
0.065 -8.87237e-14 	-7.03593e-30 	0 	
0.075 -7.18239e-14 	0 	0 	
0.085 7.18239e-14 	0 	0 	
0.095 4.22494e-15 	0 	0 	
0.105 -2.53496e-14 	0 	0 	
0.115 8.44988e-14 	0 	0 	
0.125 6.33741e-14 	0 	0 	
0.135 1.68998e-14 	0 	0 	
0.145 -1.30973e-13 	0 	0 	
0.155 -1.30973e-13 	0 	0 	
0.165 -4.64743e-14 	0 	0 	
0.175 -2.95746e-14 	0 	0 	
0.185 -2.53496e-14 	0 	0 	
0.195 3.80244e-14 	0 	0 	
0.205 8.44987e-14 	0 	0 	
0.215 3.80244e-14 	0 	0 	
0.225 8.44987e-14 	0 	0 	
0.235 -1.01398e-13 	0 	0 	
0.245 -8.02738e-14 	0 	0 	
0.255 -4.22494e-14 	0 	0 	
0.265 -9.71736e-14 	0 	0 	
0.275 -1.05623e-13 	0 	0 	
0.285 8.44988e-15 	0 	0 	
0.295 -2.95746e-14 	0 	0 	
0.305 1.64773e-13 	0 	0 	
0.315 1.26114e-11 	0 	0 	
0.325 8.79736e-09 	0 	0 	
0.335 1.7157e-06 	0 	0 	
0.345 0.000118765 	0 	0 	
0.355 0.00364741 	0 	0 	
0.365 0.0580473 	0 	0 	
0.375 0.5079 	0 	0 	
0.385 2.57033 	0 	0 	
0.395 8.29889 	0 	0 	
0.405 19.1368 	0 	0 	
0.415 34.8631 	0 	0 	
0.425 54.1975 	0 	0 	
0.435 75.6027 	0 	0 	
0.445 97.2307 	6.32583e-31 	0 	
0.455 116.001 	1.01179e-30 	0 	
0.465 127.205 	0 	0 	
0.475 130.059 	0 	0 	
0.485 130.195 	5.30667e-31 	0 	
0.495 130.169 	0 	0 	
0.505 130.147 	0 	0 	
0.515 130.131 	1.77232e-31 	0 	
0.525 130.117 	0 	0 	
0.535 130.106 	0 	0 	
0.545 130.094 	0 	0 	
0.555 130.083 	-4.83196e-30 	0 	
0.565 130.069 	0 	0 	
0.575 130.053 	0 	0 	
0.585 130.016 	0 	0 	
0.595 129.522 	0 	0 	
0.605 129.311 	0 	0 	
0.615 110.044 	-1.6976e-30 	0 	
0.625 63.6107 	0 	0 	
0.635 6.3484 	0 	0 	
0.645 0.217983 	0 	0 	
0.655 0.00461506 	0 	0 	
0.665 5.14615e-05 	0 	0 	
0.675 2.34458e-07 	0 	0 	
0.685 3.45626e-10 	0 	0 	
0.695 9.50611e-14 	0 	0 	
0.705 2.53495e-14 	0 	0 	
0.715 3.16872e-14 	0 	0 	
0.725 -9.50644e-15 	5.62874e-30 	0 	
0.735 4.11931e-14 	0 	0 	
0.745 -8.5555e-14 	0 	0 	
0.755 -7.28799e-14 	0 	0 	
0.765 6.02054e-14 	-1.61827e-29 	0 	
0.775 2.53496e-14 	0 	0 	
0.785 -1.58438e-14 	0 	0 	
0.795 3.1687e-15 	0 	0 	
0.805 4.4362e-14 	0 	0 	
0.815 1.26749e-14 	8.79492e-30 	0 	
0.825 3.16869e-14 	3.86976e-30 	0 	
0.835 -1.77447e-13 	0 	0 	
0.845 9.50608e-15 	0 	0 	
0.855 -1.26647e-29 	0 	0 	
0.865 -1.2358e-13 	0 	0 	
0.875 -1.58435e-14 	0 	0 	
0.885 6.02051e-14 	0 	0 	
0.895 -4.4362e-14 	0 	0 	
0.905 2.85183e-14 	0 	0 	
0.915 -8.87233e-14 	0 	0 	
0.925 3.80247e-14 	0 	0 	
0.935 -2.21811e-14 	0 	0 	
0.945 4.11933e-14 	0 	0 	
0.955 8.5555e-14 	0 	0 	
0.965 6.3374e-15 	0 	0 	
0.975 9.50594e-15 	0 	0 	
0.985 -2.85181e-14 	0 	0 	
0.995 -2.85181e-14 	0 	0 	
