0.005 7.05383e-14 	0 	0 	
0.015 4.70254e-14 	0 	0 	
0.025 2.35127e-14 	0 	0 	
0.035 2.35126e-14 	0 	0 	
0.045 1.17564e-13 	0 	0 	
0.055 4.70254e-14 	0 	0 	
0.065 -2.35127e-14 	0 	0 	
0.075 2.3513e-14 	0 	0 	
0.085 -1.17001e-24 	0 	0 	
0.095 -2.35127e-14 	0 	0 	
0.105 4.70256e-14 	0 	0 	
0.115 1.88102e-13 	0 	0 	
0.125 -2.35127e-14 	0 	0 	
0.135 2.35127e-14 	0 	0 	
0.145 1.14859e-28 	0 	0 	
0.155 7.0538e-14 	0 	0 	
0.165 -7.05383e-14 	0 	0 	
0.175 -2.35127e-14 	0 	0 	
0.185 -1.88101e-13 	0 	0 	
0.195 2.3513e-14 	0 	0 	
0.205 -9.4051e-14 	1.1747e-29 	0 	
0.215 -2.35127e-14 	0 	0 	
0.225 -1.41076e-13 	0 	0 	
0.235 7.05383e-14 	0 	0 	
0.245 4.49092e-12 	0 	0 	
0.255 2.38959e-10 	0 	0 	
0.265 8.88794e-09 	0 	0 	
0.275 2.41734e-07 	0 	0 	
0.285 4.87778e-06 	0 	0 	
0.295 7.37989e-05 	0 	0 	
0.305 0.000843727 	0 	0 	
0.315 0.00732882 	0 	0 	
0.325 0.0485411 	0 	0 	
0.335 0.245895 	0 	0 	
0.345 0.957953 	0 	0 	
0.355 2.90763 	0 	0 	
0.365 7.04715 	0 	0 	
0.375 14.1241 	0 	0 	
0.385 24.3351 	0 	0 	
0.395 37.3509 	0 	0 	
0.405 52.5496 	0 	0 	
0.415 69.1889 	0 	0 	
0.425 86.4014 	0 	0 	
0.435 102.984 	0 	0 	
0.445 117.034 	0 	0 	
0.455 126.134 	0 	0 	
0.465 129.63 	0 	0 	
0.475 130.195 	0 	0 	
0.485 130.199 	0 	0 	
0.495 130.177 	0 	0 	
0.505 130.158 	-7.39113e-31 	0 	
0.515 130.143 	1.1095e-30 	0 	
0.525 130.13 	-1.73304e-30 	0 	
0.535 130.119 	-1.14815e-30 	0 	
0.545 130.109 	-1.25493e-30 	0 	
0.555 130.099 	0 	0 	
0.565 130.089 	0 	0 	
0.575 130.079 	3.20561e-30 	0 	
0.585 130.068 	3.04279e-30 	0 	
0.595 130.052 	3.04212e-30 	0 	
0.605 130.002 	3.54845e-30 	0 	
0.615 129.737 	-3.38067e-30 	0 	
0.625 128.375 	0 	0 	
0.635 122.519 	0 	0 	
0.645 102.375 	0 	0 	
0.655 56.5826 	0 	0 	
0.665 14.0227 	0 	0 	
0.675 1.8529 	0 	0 	
0.685 0.187132 	0 	0 	
0.695 0.0156022 	0 	0 	
0.705 0.0010587 	0 	0 	
0.715 5.71373e-05 	0 	0 	
0.725 2.40077e-06 	0 	0 	
0.735 7.69598e-08 	0 	0 	
0.745 1.84332e-09 	0 	0 	
0.755 3.23065e-11 	-4.77219e-30 	0 	
0.765 2.82153e-13 	0 	0 	
0.775 -5.29035e-14 	0 	0 	
0.785 -5.29035e-14 	0 	0 	
0.795 -3.5269e-14 	-4.77219e-30 	0 	
0.805 3.52689e-14 	-5.01693e-30 	0 	
0.815 -5.29034e-14 	0 	0 	
0.825 -5.29035e-14 	0 	0 	
0.835 -1.76345e-14 	0 	0 	
0.845 3.5269e-14 	0 	0 	
0.855 7.0538e-14 	0 	0 	
0.865 5.29036e-14 	0 	0 	
0.875 7.05381e-14 	0 	0 	
0.885 7.0538e-14 	0 	0 	
0.895 1.73856e-24 	0 	0 	
0.905 1.05807e-13 	0 	0 	
0.915 8.81725e-14 	0 	0 	
0.925 8.81725e-14 	0 	0 	
0.935 3.5269e-14 	0 	0 	
0.945 -8.81725e-14 	0 	0 	
0.955 7.0538e-14 	0 	0 	
0.965 -3.5269e-14 	0 	0 	
0.975 -1.76346e-14 	0 	0 	
0.985 -3.52689e-14 	0 	0 	
0.995 4.33864e-25 	0 	0 	
