0.005 -7.66605e-14 	0 	0 	
0.015 -5.87706e-26 	0 	0 	
0.025 3.69856e-14 	0 	0 	
0.035 1.98377e-13 	0 	0 	
0.045 1.34466e-15 	0 	0 	
0.055 2.68985e-15 	0 	0 	
0.065 9.41435e-15 	0 	0 	
0.075 -7.39709e-14 	0 	0 	
0.085 -4.64e-14 	0 	0 	
0.095 -7.93504e-14 	0 	0 	
0.105 -1.64081e-13 	0 	0 	
0.115 -5.17797e-14 	1.16654e-29 	0 	
0.125 -1.17681e-13 	0 	0 	
0.135 -6.7246e-14 	0 	0 	
0.145 -1.32475e-13 	0 	0 	
0.155 -2.00394e-13 	0 	0 	
0.165 -6.72463e-14 	0 	0 	
0.175 2.35362e-14 	0 	0 	
0.185 -1.49959e-13 	0 	0 	
0.195 -4.37104e-14 	0 	0 	
0.205 -5.24521e-14 	0 	0 	
0.215 9.7507e-14 	0 	0 	
0.225 4.37101e-14 	0 	0 	
0.235 -3.36231e-14 	0 	0 	
0.245 -8.67476e-14 	0 	0 	
0.255 -7.66608e-14 	0 	0 	
0.265 1.28239e-12 	0 	0 	
0.275 3.94813e-10 	0 	0 	
0.285 4.6799e-08 	0 	0 	
0.295 3.06323e-06 	0 	0 	
0.305 0.000106229 	0 	0 	
0.315 0.00210214 	0 	0 	
0.325 0.0256868 	0 	0 	
0.335 0.201904 	0 	0 	
0.345 1.02873 	0 	0 	
0.355 3.58137 	0 	0 	
0.365 9.13059 	0 	0 	
0.375 18.2494 	0 	0 	
0.385 30.6277 	0 	0 	
0.395 45.5024 	0 	0 	
0.405 62.0369 	0 	0 	
0.415 79.4073 	0 	0 	
0.425 96.6711 	0 	0 	
0.435 112.315 	0 	0 	
0.445 123.82 	0 	0 	
0.455 129.128 	0 	0 	
0.465 130.154 	0 	0 	
0.475 130.185 	0 	0 	
0.485 130.164 	0 	0 	
0.495 130.147 	0 	0 	
0.505 130.134 	0 	0 	
0.515 130.124 	0 	0 	
0.525 130.114 	0 	0 	
0.535 130.106 	0 	0 	
0.545 130.098 	0 	0 	
0.555 130.091 	0 	0 	
0.565 130.083 	0 	0 	
0.575 130.073 	0 	0 	
0.585 130.061 	0 	0 	
0.595 130.044 	0 	0 	
0.605 130.021 	0 	0 	
0.615 129.978 	0 	0 	
0.625 129.721 	0 	0 	
0.635 129.667 	0 	0 	
0.645 146.932 	0 	0 	
0.655 65.5583 	0 	0 	
0.665 41.6074 	0 	0 	
0.675 2.86785 	0 	0 	
0.685 0.111005 	0 	0 	
0.695 0.00316336 	0 	0 	
0.705 5.93035e-05 	0 	0 	
0.715 6.5224e-07 	0 	0 	
0.725 4.30017e-09 	0 	0 	
0.735 1.1601e-11 	0 	0 	
0.745 -7.06086e-15 	0 	0 	
0.755 -5.0435e-14 	0 	0 	
0.765 -2.52183e-15 	0 	0 	
0.775 5.04385e-15 	0 	0 	
0.785 9.78433e-14 	0 	0 	
0.795 -7.46435e-14 	0 	0 	
0.805 2.52175e-14 	0 	0 	
0.815 -1.16001e-14 	0 	0 	
0.825 4.03478e-14 	0 	0 	
0.835 3.83304e-14 	0 	0 	
0.845 -1.56348e-14 	0 	0 	
0.855 -1.43739e-13 	0 	0 	
0.865 6.15303e-14 	0 	0 	
0.875 8.82608e-14 	0 	0 	
0.885 3.02618e-15 	0 	0 	
0.895 1.61393e-14 	0 	0 	
0.905 1.00365e-13 	0 	0 	
0.915 -2.77391e-14 	0 	0 	
0.925 8.82607e-14 	0 	0 	
0.935 1.86611e-14 	0 	0 	
0.945 9.53216e-14 	0 	0 	
0.955 1.3113e-14 	0 	0 	
0.965 -7.46432e-14 	0 	0 	
0.975 6.80869e-14 	0 	0 	
0.985 -1.86607e-14 	0 	0 	
0.995 4.33741e-14 	0 	0 	
