0.005 6.93624e-14 	0 	0 	
0.015 -3.46812e-14 	0 	0 	
0.025 -1.04044e-13 	0 	0 	
0.035 4.68197e-14 	0 	0 	
0.045 7.28305e-14 	0 	0 	
0.055 3.2303e-26 	0 	0 	
0.065 7.80326e-14 	0 	0 	
0.075 -1.47395e-13 	0 	0 	
0.085 -4.85537e-14 	4.81299e-30 	0 	
0.095 -3.29474e-14 	0 	0 	
0.105 -3.81494e-14 	0 	0 	
0.115 5.89581e-14 	-2.64715e-30 	0 	
0.125 9.53735e-14 	2.16584e-30 	0 	
0.135 -2.42769e-14 	0 	0 	
0.145 9.53733e-14 	0 	0 	
0.155 4.33514e-14 	0 	0 	
0.165 1.04041e-14 	0 	0 	
0.175 1.12714e-13 	0 	0 	
0.185 1.23118e-13 	0 	0 	
0.195 -1.38725e-13 	0 	0 	
0.205 9.53735e-14 	0 	0 	
0.215 -3.98835e-14 	0 	0 	
0.225 -4.33516e-14 	0 	0 	
0.235 -9.36392e-14 	0 	0 	
0.245 -1.35257e-13 	0 	0 	
0.255 3.46536e-29 	0 	0 	
0.265 -8.6704e-15 	0 	0 	
0.275 -6.06921e-14 	0 	0 	
0.285 -3.98832e-14 	0 	0 	
0.295 -9.53732e-14 	0 	0 	
0.305 1.26587e-13 	0 	0 	
0.315 -1.61268e-13 	0 	0 	
0.325 -4.33513e-14 	0 	0 	
0.335 1.21383e-14 	0 	0 	
0.345 1.90745e-14 	0 	0 	
0.355 -7.62987e-14 	0 	0 	
0.365 -7.80326e-14 	0 	0 	
0.375 -5.20218e-14 	0 	0 	
0.385 -1.38725e-14 	0 	0 	
0.395 -1.73407e-15 	0 	0 	
0.405 -1.45661e-13 	0 	0 	
0.415 -1.49129e-13 	0 	0 	
0.425 2.60109e-14 	0 	0 	
0.435 -1.38722e-14 	0 	0 	
0.445 0.000118132 	0 	0 	
0.455 0.195523 	0 	0 	
0.465 5.64994 	0 	0 	
0.475 33.0181 	0 	0 	
0.485 85.9066 	0 	0 	
0.495 127.752 	0 	0 	
0.505 130.183 	0 	0 	
0.515 129.903 	0 	0 	
0.525 124.883 	0 	0 	
0.535 65.9028 	0 	0 	
0.545 2.12945 	0 	0 	
0.555 0.00058839 	0 	0 	
0.565 -3.64152e-14 	0 	0 	
0.575 -8.45358e-14 	0 	0 	
0.585 8.45354e-14 	0 	0 	
0.595 1.22251e-13 	0 	0 	
0.605 1.24852e-13 	0 	0 	
0.615 -9.88419e-14 	0 	0 	
0.625 3.25134e-14 	0 	0 	
0.635 3.38143e-14 	0 	0 	
0.645 2.6011e-14 	0 	0 	
0.655 1.3006e-15 	0 	0 	
0.665 2.23694e-13 	0 	0 	
0.675 -5.20221e-14 	0 	0 	
0.685 4.42187e-14 	0 	0 	
0.695 -7.15298e-14 	0 	0 	
0.705 -7.80326e-14 	0 	0 	
0.715 6.6328e-14 	0 	0 	
0.725 7.80325e-14 	0 	0 	
0.735 7.8032e-15 	0 	0 	
0.745 -6.37267e-14 	0 	0 	
0.755 5.4623e-14 	0 	0 	
0.765 -8.32349e-14 	0 	0 	
0.775 -5.85247e-14 	0 	0 	
0.785 -5.46227e-14 	0 	0 	
0.795 1.1835e-13 	0 	0 	
0.805 9.75413e-14 	0 	0 	
0.815 -8.19342e-14 	0 	0 	
0.825 -2.60109e-14 	0 	0 	
0.835 -1.56066e-14 	0 	0 	
0.845 -3.51148e-14 	0 	0 	
0.855 -2.34097e-14 	0 	0 	
0.865 4.40738e-25 	0 	0 	
0.875 -3.25138e-14 	0 	0 	
0.885 4.42187e-14 	0 	0 	
0.895 7.54315e-14 	0 	0 	
0.905 -2.6011e-14 	0 	0 	
0.915 -1.39158e-13 	0 	0 	
0.925 -3.25138e-14 	0 	0 	
0.935 2.99123e-14 	0 	0 	
0.945 5.33225e-14 	0 	0 	
0.955 -1.6907e-14 	0 	0 	
0.965 -1.1965e-13 	0 	0 	
0.975 4.5519e-14 	0 	0 	
0.985 4.42187e-14 	0 	0 	
0.995 2.08089e-14 	0 	0 	
