0.005 7.15958e-14 	0 	0 	
0.015 -2.0456e-14 	0 	0 	
0.025 2.49995e-19 	0 	0 	
0.035 6.81865e-14 	0 	0 	
0.045 -1.12509e-13 	0 	0 	
0.055 -1.36373e-14 	0 	0 	
0.065 5.11403e-14 	0 	0 	
0.075 -1.36374e-13 	0 	0 	
0.085 -3.75025e-14 	0 	0 	
0.095 1.67058e-13 	0 	0 	
0.105 -9.88711e-14 	0 	0 	
0.115 8.1824e-14 	0 	0 	
0.125 8.52337e-14 	0 	0 	
0.135 4.77309e-14 	0 	0 	
0.145 2.38656e-14 	0 	0 	
0.155 6.13679e-14 	0 	0 	
0.165 -4.43211e-14 	0 	0 	
0.175 -3.40933e-14 	0 	0 	
0.185 1.26146e-13 	-3.07541e-30 	0 	
0.195 5.79586e-14 	0 	0 	
0.205 2.25017e-13 	0 	0 	
0.215 -7.50058e-14 	0 	0 	
0.225 3.40933e-14 	0 	0 	
0.235 6.81866e-14 	0 	0 	
0.245 5.7959e-14 	0 	0 	
0.255 1.50011e-13 	-3.07541e-30 	0 	
0.265 2.00011e-19 	-1.656e-30 	0 	
0.275 2.45555e-24 	0 	0 	
0.285 1.0228e-13 	0 	0 	
0.295 7.50057e-14 	0 	0 	
0.305 1.0228e-13 	0 	0 	
0.315 4.09119e-14 	0 	0 	
0.325 8.52333e-14 	0 	0 	
0.335 1.15917e-13 	0 	0 	
0.345 6.8187e-15 	0 	0 	
0.355 -8.86426e-14 	-1.30114e-30 	0 	
0.365 -2.72749e-14 	0 	0 	
0.375 -5.87635e-25 	0 	0 	
0.385 9.54614e-14 	0 	0 	
0.395 1.70467e-14 	0 	0 	
0.405 -7.50052e-14 	0 	0 	
0.415 1.02279e-14 	0 	0 	
0.425 6.01636e-06 	0 	0 	
0.435 0.00969403 	0 	0 	
0.445 0.584023 	0 	0 	
0.455 6.93823 	0 	0 	
0.465 29.4602 	0 	0 	
0.475 69.4237 	0 	0 	
0.485 113.098 	0 	0 	
0.495 129.932 	8.94083e-31 	0 	
0.505 130.185 	0 	0 	
0.515 130.13 	0 	0 	
0.525 129.92 	0 	0 	
0.535 125.266 	0 	0 	
0.545 85.8151 	0 	0 	
0.555 10.3833 	0 	0 	
0.565 0.0942779 	0 	0 	
0.575 3.44387e-05 	0 	0 	
0.585 2.55735e-15 	0 	0 	
0.595 -7.67105e-15 	0 	0 	
0.605 -5.114e-15 	0 	0 	
0.615 -1.27854e-14 	0 	0 	
0.625 -5.114e-14 	0 	0 	
0.635 3.3241e-14 	0 	0 	
0.645 -3.57979e-14 	0 	0 	
0.655 -2.8127e-14 	0 	0 	
0.665 5.00002e-19 	0 	0 	
0.675 5.11401e-14 	0 	0 	
0.685 7.41529e-14 	0 	0 	
0.695 -7.1596e-14 	0 	0 	
0.705 1.2785e-13 	0 	0 	
0.715 -1.0228e-13 	0 	0 	
0.725 5.00014e-20 	0 	0 	
0.735 2.557e-14 	0 	0 	
0.745 -2.55701e-15 	0 	0 	
0.755 4.8583e-14 	0 	0 	
0.765 -1.27852e-14 	0 	0 	
0.775 6.3925e-14 	0 	0 	
0.785 1.5342e-14 	0 	0 	
0.795 7.41531e-14 	0 	0 	
0.805 -5.3697e-14 	0 	0 	
0.815 -1.17622e-13 	0 	0 	
0.825 7.671e-14 	0 	0 	
0.835 6.1368e-14 	0 	0 	
0.845 1.61091e-13 	0 	0 	
0.855 -2.3013e-14 	0 	0 	
0.865 1.50863e-13 	0 	0 	
0.875 -1.27853e-14 	0 	0 	
0.885 -3.5001e-19 	0 	0 	
0.895 8.4381e-14 	0 	0 	
0.905 -2.55701e-15 	0 	0 	
0.915 -5.6254e-14 	0 	0 	
0.925 -3.8355e-14 	0 	0 	
0.935 8.81449e-25 	0 	0 	
0.945 1.32964e-13 	0 	0 	
0.955 2.8127e-14 	0 	0 	
0.965 1.07394e-13 	0 	0 	
0.975 7.671e-14 	0 	0 	
0.985 5.11394e-15 	0 	0 	
0.995 5.62544e-14 	0 	0 	
