0.005 8.6703e-15 	0 	0 	
0.015 4.85538e-14 	0 	0 	
0.025 -1.73406e-14 	0 	0 	
0.035 3.81493e-14 	0 	0 	
0.045 -6.24261e-14 	0 	0 	
0.055 6.93625e-15 	0 	0 	
0.065 1.16182e-13 	0 	0 	
0.075 6.06924e-14 	0 	0 	
0.085 1.57799e-13 	2.21398e-29 	0 	
0.095 1.33523e-13 	0 	0 	
0.105 2.67045e-13 	0 	0 	
0.115 9.88413e-14 	-1.15512e-29 	0 	
0.125 1.73406e-14 	1.10699e-29 	0 	
0.135 1.97683e-13 	0 	0 	
0.145 1.82077e-13 	0 	0 	
0.155 1.45661e-13 	0 	0 	
0.165 1.71672e-13 	0 	0 	
0.175 1.38725e-13 	0 	0 	
0.185 7.97667e-14 	0 	0 	
0.195 3.29471e-14 	0 	0 	
0.205 6.93625e-14 	0 	0 	
0.215 -1.04043e-14 	0 	0 	
0.225 6.06921e-14 	0 	0 	
0.235 -1.73399e-15 	0 	0 	
0.245 -1.56065e-14 	0 	0 	
0.255 2.2196e-13 	0 	0 	
0.265 7.90818e-11 	0 	0 	
0.275 1.26273e-08 	0 	0 	
0.285 9.47633e-07 	0 	0 	
0.295 3.78551e-05 	0 	0 	
0.305 0.000881669 	0 	0 	
0.315 0.0124987 	0 	0 	
0.325 0.110662 	0 	0 	
0.335 0.633933 	0 	0 	
0.345 2.4499 	0 	0 	
0.355 6.77474 	0 	0 	
0.365 14.4107 	0 	0 	
0.375 25.301 	0 	0 	
0.385 38.8074 	0 	0 	
0.395 54.1471 	0 	0 	
0.405 70.5868 	0 	0 	
0.415 87.388 	0 	0 	
0.425 103.56 	0 	0 	
0.435 117.405 	0 	0 	
0.445 126.427 	0 	0 	
0.455 129.733 	0 	0 	
0.465 130.182 	0 	0 	
0.475 130.174 	0 	0 	
0.485 130.151 	0 	0 	
0.495 -1.092e+11 	0 	0 	
0.505 -9.87406e+17 	0 	0 	
0.515 -3.10319e+22 	0 	0 	
0.525 -1.076e+31 	0 	0 	
0.535 -2.50841e+37 	0 	0 	
0.545 -5.70745e+46 	0 	0 	
0.555 -1.92463e+50 	0 	0 	
0.565 -1.06427e+54 	0 	0 	
0.575 -1.69594e+60 	0 	0 	
0.585 -1.99602e+64 	0 	0 	
0.595 -3.26006e+66 	0 	0 	
0.605 -2.73141e+68 	0 	0 	
0.615 -4.42536e+71 	0 	0 	
0.625 6.62107e+67 	0 	0 	
0.635 3.88706e+63 	0 	0 	
0.645 3.51297e+53 	0 	0 	
0.655 6.32487e+48 	0 	0 	
0.665 6.05055e+33 	0 	0 	
0.675 3.78806e+29 	0 	0 	
0.685 6.51421e+23 	0 	0 	
0.695 1.01919e+12 	0 	0 	
0.705 14646.6 	0 	0 	
0.715 1.89692e-05 	0 	0 	
0.725 1.81919e-07 	0 	0 	
0.735 8.80776e-10 	0 	0 	
0.745 1.82336e-12 	0 	0 	
0.755 5.85245e-14 	0 	0 	
0.765 2.08086e-14 	0 	0 	
0.775 5.20217e-14 	0 	0 	
0.785 1.37858e-13 	0 	0 	
0.795 1.02743e-13 	0 	0 	
0.805 -1.1965e-13 	0 	0 	
0.815 -7.8033e-15 	0 	0 	
0.825 5.2022e-14 	0 	0 	
0.835 1.30061e-15 	0 	0 	
0.845 1.61267e-13 	0 	0 	
0.855 -3.25134e-14 	0 	0 	
0.865 -1.13147e-13 	0 	0 	
0.875 6.50288e-15 	0 	0 	
0.885 -6.63276e-14 	0 	0 	
0.895 7.54315e-14 	0 	0 	
0.905 2.47105e-14 	0 	0 	
0.915 -1.43062e-14 	0 	0 	
0.925 -5.85245e-14 	0 	0 	
0.935 1.28754e-13 	0 	0 	
0.945 1.1705e-14 	0 	0 	
0.955 -5.72239e-14 	0 	0 	
0.965 3.51148e-14 	0 	0 	
0.975 -6.5026e-15 	0 	0 	
0.985 -2.60111e-14 	0 	0 	
0.995 1.32217e-24 	0 	0 	
