0.005 3.94828e-24 	0 	0 	
0.015 -7.0538e-14 	0 	0 	
0.025 -3.5269e-14 	0 	0 	
0.035 7.05385e-14 	0 	0 	
0.045 3.5269e-14 	0 	0 	
0.055 -3.52689e-14 	0 	0 	
0.065 1.31592e-24 	0 	0 	
0.075 -1.41076e-13 	0 	0 	
0.085 -1.05807e-13 	0 	0 	
0.095 3.5269e-14 	0 	0 	
0.105 2.63265e-24 	0 	0 	
0.115 -1.41076e-13 	0 	0 	
0.125 -3.52689e-14 	-2.69201e-30 	0 	
0.135 -3.5269e-14 	0 	0 	
0.145 -1.41076e-13 	0 	0 	
0.155 7.0538e-14 	0 	0 	
0.165 3.5269e-14 	0 	0 	
0.175 2.11614e-13 	-5.38403e-30 	0 	
0.185 1.05807e-13 	-5.38403e-30 	0 	
0.195 1.76345e-13 	0 	0 	
0.205 7.0538e-14 	0 	0 	
0.215 -3.5269e-14 	0 	0 	
0.225 -1.41076e-13 	0 	0 	
0.235 -1.41076e-13 	0 	0 	
0.245 -1.05807e-13 	0 	0 	
0.255 9.39755e-29 	-6.36293e-30 	0 	
0.265 2.46883e-13 	-5.87348e-30 	0 	
0.275 -3.5269e-14 	0 	0 	
0.285 -1.76345e-13 	0 	0 	
0.295 -7.05379e-14 	0 	0 	
0.305 1.41076e-13 	0 	0 	
0.315 -1.05807e-13 	0 	0 	
0.325 7.0538e-14 	0 	0 	
0.335 -1.05807e-13 	0 	0 	
0.345 1.05807e-13 	0 	0 	
0.355 7.05381e-14 	-5.38403e-30 	0 	
0.365 -3.5269e-14 	0 	0 	
0.375 1.11366e-07 	0 	0 	
0.385 6.79626e-05 	0 	0 	
0.395 0.00629695 	0 	0 	
0.405 0.168771 	0 	0 	
0.415 1.72582 	6.14506e-30 	0 	
0.425 8.28921 	5.5062e-30 	0 	
0.435 23.2924 	-2.22202e-30 	0 	
0.445 46.4714 	2.80347e-30 	0 	
0.455 74.8618 	3.06282e-31 	0 	
0.465 103.794 	3.36289e-31 	0 	
0.475 124.499 	0 	0 	
0.485 130.044 	-9.22586e-32 	0 	
0.495 130.192 	0 	0 	
0.505 130.153 	-1.84909e-31 	0 	
0.515 130.112 	0 	0 	
0.525 130.05 	0 	0 	
0.535 129.933 	0 	0 	
0.545 -1596.22 	0 	0 	
0.555 -2.30697e+07 	0 	0 	
0.565 5.6887e+07 	0 	0 	
0.575 3.56933e+07 	0 	0 	
0.585 359025 	0 	0 	
0.595 6.61763 	0 	0 	
0.605 0.122609 	0 	0 	
0.615 0.000776194 	0 	0 	
0.625 8.57532e-07 	0 	0 	
0.635 -1.32259e-13 	0 	0 	
0.645 2.64517e-14 	0 	0 	
0.655 7.93555e-14 	0 	0 	
0.665 -1.5871e-13 	0 	0 	
0.675 -2.64518e-14 	0 	0 	
0.685 2.64515e-14 	0 	0 	
0.695 -2.93909e-24 	0 	0 	
0.705 2.64518e-14 	0 	0 	
0.715 2.64518e-14 	0 	0 	
0.725 7.93555e-14 	0 	0 	
0.735 7.93552e-14 	0 	0 	
0.745 5.29037e-14 	0 	0 	
0.755 -7.93555e-14 	0 	0 	
0.765 -5.29036e-14 	0 	0 	
0.775 -1.5871e-13 	0 	0 	
0.785 4.89844e-24 	0 	0 	
0.795 2.64515e-14 	0 	0 	
0.805 1.05807e-13 	0 	0 	
0.815 1.58711e-13 	0 	0 	
0.825 2.64517e-14 	0 	0 	
0.835 1.32259e-13 	0 	0 	
0.845 5.29035e-14 	0 	0 	
0.855 1.32259e-13 	0 	0 	
0.865 2.64515e-14 	0 	0 	
0.875 9.7797e-25 	0 	0 	
0.885 3.91173e-24 	0 	0 	
0.895 -2.64518e-14 	0 	0 	
0.905 -7.93555e-14 	0 	0 	
0.915 7.93552e-14 	0 	0 	
0.925 -2.64515e-14 	0 	0 	
0.935 9.77884e-25 	0 	0 	
0.945 1.05807e-13 	0 	0 	
0.955 -7.93555e-14 	0 	0 	
0.965 1.05807e-13 	0 	0 	
0.975 -2.11614e-13 	0 	0 	
0.985 2.64517e-14 	0 	0 	
0.995 -5.29036e-14 	0 	0 	
