0.005 2.93908e-14 	0 	0 	
0.015 8.81727e-14 	0 	0 	
0.025 -4.4086e-14 	0 	0 	
0.035 4.40863e-14 	0 	0 	
0.045 -7.34769e-14 	0 	0 	
0.055 -8.81724e-14 	0 	0 	
0.065 4.40862e-14 	0 	0 	
0.075 -1.46955e-14 	0 	0 	
0.085 9.62195e-47 	0 	0 	
0.095 -5.87817e-14 	0 	0 	
0.105 1.30521e-29 	0 	0 	
0.115 4.40863e-14 	0 	0 	
0.125 3.25005e-19 	0 	0 	
0.135 4.40862e-14 	0 	0 	
0.145 5.87815e-14 	0 	0 	
0.155 1.17563e-13 	0 	0 	
0.165 1.76345e-13 	0 	0 	
0.175 1.02868e-13 	0 	0 	
0.185 1.6165e-13 	0 	0 	
0.195 -8.81725e-14 	0 	0 	
0.205 -1.17564e-13 	0 	0 	
0.215 -7.34773e-14 	0 	0 	
0.225 -7.34769e-14 	0 	0 	
0.235 -1.46955e-14 	0 	0 	
0.245 1.4695e-14 	0 	0 	
0.255 -3.91565e-29 	0 	0 	
0.265 -1.02868e-13 	0 	0 	
0.275 -2.93906e-14 	0 	0 	
0.285 -8.81725e-14 	0 	0 	
0.295 -2.93907e-14 	0 	0 	
0.305 2.93909e-14 	0 	0 	
0.315 7.34769e-14 	0 	0 	
0.325 8.81727e-14 	0 	0 	
0.335 5.87817e-14 	0 	0 	
0.345 2.93909e-14 	0 	0 	
0.355 2.93909e-14 	0 	0 	
0.365 2.93908e-14 	0 	0 	
0.375 1.17563e-13 	0 	0 	
0.385 -2.9391e-14 	0 	0 	
0.395 -2.93908e-14 	0 	0 	
0.405 2.93908e-14 	0 	0 	
0.415 1.57119e-07 	0 	0 	
0.425 0.00031257 	0 	0 	
0.435 0.0383219 	0 	0 	
0.445 0.98121 	0 	0 	
0.455 8.07799 	0 	0 	
0.465 30.1171 	0 	0 	
0.475 68.4254 	0 	0 	
0.485 111.039 	0 	0 	
0.495 129.624 	0 	0 	
0.505 130.194 	0 	0 	
0.515 130.132 	0 	0 	
0.525 129.761 	0 	0 	
0.535 124.085 	0 	0 	
0.545 85.8872 	0 	0 	
0.555 14.9726 	0 	0 	
0.565 0.379011 	0 	0 	
0.575 0.00206989 	0 	0 	
0.585 7.48236e-07 	0 	0 	
0.595 1.00001e-19 	0 	0 	
0.605 8.81725e-14 	0 	0 	
0.615 9.91942e-14 	0 	0 	
0.625 8.81725e-14 	0 	0 	
0.635 5.51079e-14 	0 	0 	
0.645 -4.40864e-14 	0 	0 	
0.655 -7.7151e-14 	0 	0 	
0.665 2.20432e-14 	0 	0 	
0.675 3.30647e-14 	0 	0 	
0.685 6.81565e-24 	0 	0 	
0.695 6.61296e-14 	0 	0 	
0.705 -4.40863e-14 	0 	0 	
0.715 -6.61295e-14 	0 	0 	
0.725 -1.10216e-14 	0 	0 	
0.735 -4.40863e-14 	0 	0 	
0.745 -1.10216e-14 	0 	0 	
0.755 -2.2043e-14 	0 	0 	
0.765 2.20432e-14 	0 	0 	
0.775 -9.91941e-14 	0 	0 	
0.785 -5.51079e-14 	0 	0 	
0.795 -8.81725e-14 	0 	0 	
0.805 -2.20432e-14 	0 	0 	
0.815 2.20431e-14 	0 	0 	
0.825 2.20432e-14 	0 	0 	
0.835 7.71511e-14 	0 	0 	
0.845 9.9194e-14 	0 	0 	
0.855 5.51079e-14 	0 	0 	
0.865 4.40863e-14 	0 	0 	
0.875 2.20431e-14 	0 	0 	
0.885 -2.58891e-29 	0 	0 	
0.895 -2.20433e-14 	0 	0 	
0.905 -2.20431e-14 	0 	0 	
0.915 -5.51078e-14 	0 	0 	
0.925 -9.91942e-14 	0 	0 	
0.935 2.20431e-14 	0 	0 	
0.945 7.71509e-14 	0 	0 	
0.955 0 	0 	0 	
0.965 7.71511e-14 	0 	0 	
0.975 1.10216e-13 	0 	0 	
0.985 -6.61292e-14 	0 	0 	
0.995 -3.30647e-14 	0 	0 	
