0.005 4.11472e-13 	0 	0 	
0.015 5.29036e-13 	0 	0 	
0.025 -2.35127e-13 	0 	0 	
0.035 -5.29036e-13 	0 	0 	
0.045 -7.64161e-13 	0 	0 	
0.055 2.35127e-13 	0 	0 	
0.065 -1.09663e-23 	0 	0 	
0.075 -2.35127e-13 	0 	0 	
0.085 -2.35126e-13 	0 	0 	
0.095 5.29033e-13 	0 	0 	
0.105 7.0538e-13 	0 	0 	
0.115 4.38845e-23 	0 	0 	
0.125 5.8782e-14 	0 	0 	
0.135 -2.56052e-23 	0 	0 	
0.145 1.17563e-13 	0 	0 	
0.155 2.35127e-13 	0 	0 	
0.165 1.76343e-13 	0 	0 	
0.175 -2.35127e-13 	0 	0 	
0.185 -2.35127e-13 	0 	0 	
0.195 1.76345e-13 	0 	0 	
0.205 2.35127e-13 	0 	0 	
0.215 3.65296e-24 	0 	0 	
0.225 -7.0538e-13 	0 	0 	
0.235 4.11472e-13 	0 	0 	
0.245 1.76346e-13 	0 	0 	
0.255 -5.87815e-14 	0 	0 	
0.265 1.17563e-13 	0 	0 	
0.275 1.17564e-13 	0 	0 	
0.285 2.35127e-13 	0 	0 	
0.295 -2.35127e-13 	0 	0 	
0.305 1.76345e-13 	0 	0 	
0.315 5.8782e-14 	0 	0 	
0.325 3.64807e-24 	0 	0 	
0.335 4.11472e-13 	0 	0 	
0.345 -5.8782e-14 	0 	0 	
0.355 -4.11472e-13 	0 	0 	
0.365 -1.17563e-13 	0 	0 	
0.375 -2.35127e-13 	0 	0 	
0.385 2.35127e-13 	0 	0 	
0.395 -2.93908e-13 	0 	0 	
0.405 1.17563e-13 	0 	0 	
0.415 3.64154e-24 	0 	0 	
0.425 -5.87815e-14 	0 	0 	
0.435 0 	0 	0 	
0.445 -1.17563e-13 	0 	0 	
0.455 3.52688e-13 	0 	0 	
0.465 0 	0 	0 	
0.475 1.76346e-13 	0 	0 	
0.485 2.93909e-13 	0 	0 	
0.495 -4.70255e-13 	0 	0 	
0.505 7.96671e-09 	0 	0 	
0.515 -4.4086e-14 	0 	0 	
0.525 -2.64518e-13 	0 	0 	
0.535 6.17206e-13 	0 	0 	
0.545 -3.08606e-13 	0 	0 	
0.555 -1.32259e-13 	0 	0 	
0.565 1.32259e-13 	0 	0 	
0.575 -4.4086e-14 	0 	0 	
0.585 3.08604e-13 	0 	0 	
0.595 -8.81725e-14 	0 	0 	
0.605 3.08604e-13 	0 	0 	
0.615 -3.5269e-13 	0 	0 	
0.625 3.08604e-13 	0 	0 	
0.635 1.76345e-13 	0 	0 	
0.645 4.409e-14 	0 	0 	
0.655 -4.40863e-13 	0 	0 	
0.665 -4.84951e-13 	0 	0 	
0.675 -2.20431e-13 	0 	0 	
0.685 9.25813e-13 	0 	0 	
0.695 5.7312e-13 	0 	0 	
0.705 -1.76345e-13 	0 	0 	
0.715 8.81725e-13 	0 	0 	
0.725 -3.96776e-13 	0 	0 	
0.735 4.40861e-13 	0 	0 	
0.745 4.40865e-14 	0 	0 	
0.755 -1.3226e-13 	0 	0 	
0.765 -8.81725e-14 	0 	0 	
0.775 -2.64518e-13 	0 	0 	
0.785 -3.5269e-13 	0 	0 	
0.795 4.4086e-14 	0 	0 	
0.805 -4.40861e-13 	0 	0 	
0.815 -5.73122e-13 	0 	0 	
0.825 8.37637e-13 	0 	0 	
0.835 -2.20435e-13 	0 	0 	
0.845 3.52688e-13 	0 	0 	
0.855 7.49467e-13 	0 	0 	
0.865 1.76345e-13 	0 	0 	
0.875 6.17206e-13 	0 	0 	
0.885 3.08604e-13 	0 	0 	
0.895 1.76345e-13 	0 	0 	
0.905 -6.17208e-13 	0 	0 	
0.915 2.64517e-13 	0 	0 	
0.925 -2.20435e-13 	0 	0 	
0.935 1.32261e-13 	0 	0 	
0.945 -4.40863e-13 	0 	0 	
0.955 -2.64516e-13 	0 	0 	
0.965 1.32259e-13 	0 	0 	
0.975 -4.4085e-14 	0 	0 	
0.985 -2.64518e-13 	0 	0 	
0.995 7.0538e-13 	0 	0 	
