0.005 1.95016e-14 	0 	0 	
0.015 -4.7745e-14 	0 	0 	
0.025 -5.71595e-14 	0 	0 	
0.035 1.64081e-13 	0 	0 	
0.045 9.95245e-14 	0 	0 	
0.055 3.83303e-14 	0 	0 	
0.065 -7.66609e-14 	0 	0 	
0.075 -3.02607e-14 	0 	0 	
0.085 -3.36234e-14 	0 	0 	
0.095 -2.01739e-15 	0 	0 	
0.105 8.67479e-14 	0 	0 	
0.115 -1.81565e-14 	1.04988e-29 	0 	
0.125 -1.17681e-13 	0 	0 	
0.135 -7.39706e-15 	0 	0 	
0.145 -9.68347e-14 	0 	0 	
0.155 -9.01098e-14 	0 	0 	
0.165 3.36242e-15 	0 	0 	
0.175 -6.7246e-14 	0 	0 	
0.185 -7.32986e-14 	0 	0 	
0.195 4.909e-14 	0 	0 	
0.205 -1.0087e-14 	0 	0 	
0.215 -1.30458e-13 	0 	0 	
0.225 -1.58029e-13 	0 	0 	
0.235 -3.90027e-14 	0 	0 	
0.245 -3.3623e-14 	0 	0 	
0.255 -7.66608e-14 	0 	0 	
0.265 -3.90027e-14 	0 	0 	
0.275 1.07594e-13 	0 	0 	
0.285 2.96932e-11 	0 	0 	
0.295 7.91933e-09 	0 	0 	
0.305 8.27802e-07 	0 	0 	
0.315 4.02611e-05 	0 	0 	
0.325 0.00106464 	0 	0 	
0.335 0.0166374 	0 	0 	
0.345 0.153728 	0 	0 	
0.355 0.885674 	0 	0 	
0.365 3.39066 	0 	0 	
0.375 9.13792 	0 	0 	
0.385 18.8688 	0 	0 	
0.395 32.272 	0 	0 	
0.405 48.4553 	0 	0 	
0.415 66.3958 	0 	0 	
0.425 85.0771 	0 	0 	
0.435 103.157 	0 	0 	
0.445 118.316 	0 	0 	
0.455 127.363 	0 	0 	
0.465 129.987 	0 	0 	
0.475 130.194 	0 	0 	
0.485 130.172 	0 	0 	
0.495 130.153 	0 	0 	
0.505 130.137 	0 	0 	
0.515 130.126 	0 	0 	
0.525 130.115 	0 	0 	
0.535 130.106 	0 	0 	
0.545 130.098 	0 	0 	
0.555 130.089 	0 	0 	
0.565 130.081 	0 	0 	
0.575 130.071 	0 	0 	
0.585 130.059 	0 	0 	
0.595 130.042 	0 	0 	
0.605 130.014 	0 	0 	
0.615 129.965 	0 	0 	
0.625 126.303 	0 	0 	
0.635 90.541 	0 	0 	
0.645 60.6873 	0 	0 	
0.655 22.0469 	0 	0 	
0.665 1.23329 	0 	0 	
0.675 0.0391163 	0 	0 	
0.685 0.000895294 	0 	0 	
0.695 1.26696e-05 	0 	0 	
0.705 9.03681e-08 	0 	0 	
0.715 2.65852e-10 	0 	0 	
0.725 3.2026e-13 	0 	0 	
0.735 -9.02782e-14 	0 	0 	
0.745 -6.50612e-14 	0 	0 	
0.755 -2.11826e-14 	0 	0 	
0.765 -6.75827e-14 	0 	0 	
0.775 -7.31301e-14 	0 	0 	
0.785 2.16871e-14 	0 	0 	
0.795 6.55655e-15 	0 	0 	
0.805 4.08523e-14 	0 	0 	
0.815 8.52347e-14 	0 	0 	
0.825 -3.7826e-14 	0 	0 	
0.835 -6.2539e-14 	0 	0 	
0.845 1.56346e-14 	0 	0 	
0.855 1.00869e-13 	0 	0 	
0.865 3.37913e-14 	0 	0 	
0.875 6.30433e-14 	0 	0 	
0.885 1.00869e-13 	0 	0 	
0.895 4.43828e-14 	0 	0 	
0.905 3.37914e-14 	0 	0 	
0.915 -3.53035e-15 	0 	0 	
0.925 -6.55649e-14 	0 	0 	
0.935 2.77394e-14 	0 	0 	
0.945 9.12871e-14 	0 	0 	
0.955 3.17737e-14 	0 	0 	
0.965 5.04343e-16 	0 	0 	
0.975 5.0435e-14 	0 	0 	
0.985 6.65738e-14 	0 	0 	
0.995 2.92524e-14 	0 	0 	
