0.005 -2.35362e-14 	0 	0 	
0.015 -8.87653e-14 	0 	0 	
0.025 2.01739e-14 	0 	0 	
0.035 -6.59011e-14 	0 	0 	
0.045 1.47939e-14 	0 	0 	
0.055 4.90901e-14 	0 	0 	
0.065 6.05214e-15 	0 	0 	
0.075 1.17681e-13 	0 	0 	
0.085 4.97623e-14 	0 	0 	
0.095 -3.22785e-14 	0 	0 	
0.105 2.01738e-15 	0 	0 	
0.115 -3.36229e-15 	1.39984e-30 	0 	
0.125 6.72463e-14 	0 	0 	
0.135 4.5055e-14 	0 	0 	
0.145 2.55535e-14 	0 	0 	
0.155 5.58142e-14 	0 	0 	
0.165 5.44695e-14 	0 	0 	
0.175 -4.371e-14 	0 	0 	
0.185 -2.68981e-15 	0 	0 	
0.195 -5.17794e-14 	0 	0 	
0.205 -8.20404e-14 	0 	0 	
0.215 9.88523e-14 	0 	0 	
0.225 -7.39711e-14 	0 	0 	
0.235 4.77447e-14 	0 	0 	
0.245 -2.42085e-14 	0 	0 	
0.255 -2.42085e-14 	0 	0 	
0.265 -6.05218e-14 	0 	0 	
0.275 8.40582e-14 	0 	0 	
0.285 -6.85909e-14 	0 	0 	
0.295 1.24405e-13 	0 	0 	
0.305 1.27766e-14 	0 	0 	
0.315 0 	0 	0 	
0.325 -1.88289e-13 	0 	0 	
0.335 -4.50548e-14 	0 	0 	
0.345 1.21043e-14 	0 	0 	
0.355 -2.35361e-14 	0 	0 	
0.365 9.01098e-14 	0 	0 	
0.375 -5.04348e-14 	0 	0 	
0.385 1.64249e-30 	0 	0 	
0.395 1.18353e-13 	0 	0 	
0.405 4.50552e-14 	0 	0 	
0.415 1.42562e-13 	0 	0 	
0.425 -1.81565e-13 	0 	0 	
0.435 8.87647e-14 	0 	0 	
0.445 -3.36231e-14 	0 	0 	
0.455 -1.76291e-24 	0 	0 	
0.465 -3.22782e-14 	0 	0 	
0.475 0.583135 	0 	0 	
0.485 22.0888 	0 	0 	
0.495 99.8941 	0 	0 	
0.505 129.685 	0 	0 	
0.515 95.5287 	0 	0 	
0.525 3.93997 	0 	0 	
0.535 7.0609e-14 	0 	0 	
0.545 3.93391e-14 	0 	0 	
0.555 2.37042e-14 	0 	0 	
0.565 -9.17914e-14 	0 	0 	
0.575 1.28609e-13 	0 	0 	
0.585 3.73217e-14 	0 	0 	
0.595 1.51305e-14 	0 	0 	
0.605 6.80867e-14 	0 	0 	
0.615 -6.45564e-14 	0 	0 	
0.625 -2.5217e-14 	0 	0 	
0.635 9.27999e-14 	0 	0 	
0.645 2.67305e-14 	0 	0 	
0.655 8.37219e-14 	0 	0 	
0.665 -8.17042e-14 	0 	0 	
0.675 5.80002e-14 	0 	0 	
0.685 -2.52173e-14 	0 	0 	
0.695 -2.52175e-14 	0 	0 	
0.705 2.21913e-14 	0 	0 	
0.715 -2.52175e-14 	0 	0 	
0.725 -4.53912e-14 	0 	0 	
0.735 3.3287e-14 	0 	0 	
0.745 -3.27824e-14 	0 	0 	
0.755 3.27825e-14 	0 	0 	
0.765 -5.69913e-14 	0 	0 	
0.775 -5.0433e-15 	0 	0 	
0.785 -2.57217e-14 	0 	0 	
0.795 8.32171e-14 	0 	0 	
0.805 -1.16001e-14 	0 	0 	
0.815 -7.36349e-14 	0 	0 	
0.825 1.21043e-13 	0 	0 	
0.835 -5.04345e-14 	0 	0 	
0.845 1.66436e-14 	0 	0 	
0.855 -7.4139e-14 	0 	0 	
0.865 7.81736e-14 	0 	0 	
0.875 -8.82607e-14 	0 	0 	
0.885 3.9339e-14 	0 	0 	
0.895 -2.37045e-14 	0 	0 	
0.905 -5.8e-14 	0 	0 	
0.915 -1.22556e-13 	0 	0 	
0.925 -5.54785e-14 	0 	0 	
0.935 -2.97566e-14 	0 	0 	
0.945 2.11826e-14 	0 	0 	
0.955 8.01914e-14 	0 	0 	
0.965 -5.14432e-14 	0 	0 	
0.975 6.55651e-14 	0 	0 	
0.985 -5.85043e-14 	0 	0 	
0.995 -1.23061e-13 	0 	0 	
