0.005 -4.70255e-14 	0 	0 	
0.015 -2.3513e-14 	0 	0 	
0.025 -9.40508e-14 	0 	0 	
0.035 -2.35127e-14 	0 	0 	
0.045 -2.35127e-14 	0 	0 	
0.055 4.70254e-14 	0 	0 	
0.065 4.70253e-14 	0 	0 	
0.075 4.70254e-14 	0 	0 	
0.085 2.92501e-24 	0 	0 	
0.095 7.05381e-14 	0 	0 	
0.105 4.70254e-14 	0 	0 	
0.115 2.34049e-24 	0 	0 	
0.125 4.70253e-14 	0 	0 	
0.135 2.35126e-14 	0 	0 	
0.145 -4.70254e-14 	0 	0 	
0.155 -2.35127e-14 	0 	0 	
0.165 -2.35127e-14 	0 	0 	
0.175 2.35127e-14 	0 	0 	
0.185 -1.16948e-24 	0 	0 	
0.195 -4.70254e-14 	0 	0 	
0.205 -2.35127e-14 	7.17868e-30 	0 	
0.215 -1.04417e-29 	0 	0 	
0.225 7.05381e-14 	0 	0 	
0.235 -2.35127e-14 	0 	0 	
0.245 -4.70254e-14 	0 	0 	
0.255 -2.3513e-14 	0 	0 	
0.265 0 	0 	0 	
0.275 -1.41076e-13 	0 	0 	
0.285 -1.17563e-13 	0 	0 	
0.295 -9.40507e-14 	0 	0 	
0.305 -4.70254e-14 	0 	0 	
0.315 2.3513e-14 	0 	0 	
0.325 3.00492e-11 	0 	0 	
0.335 4.56651e-09 	0 	0 	
0.345 3.62362e-07 	0 	0 	
0.355 1.63163e-05 	0 	0 	
0.365 0.000440781 	0 	0 	
0.375 0.0074127 	0 	0 	
0.385 0.0795042 	0 	0 	
0.395 0.553556 	0 	0 	
0.405 2.55933 	0 	0 	
0.415 8.20032 	0 	0 	
0.425 19.4553 	0 	0 	
0.435 36.8076 	0 	0 	
0.445 59.1435 	0 	0 	
0.455 84.2156 	0 	0 	
0.465 108.211 	0 	0 	
0.475 124.687 	0 	0 	
0.485 129.877 	0 	0 	
0.495 130.219 	0 	0 	
0.505 130.186 	-7.40439e-31 	0 	
0.515 130.157 	1.37115e-30 	0 	
0.525 130.132 	-1.62102e-30 	0 	
0.535 130.109 	-7.78581e-31 	0 	
0.545 130.083 	-1.00343e-30 	0 	
0.555 130 	0 	0 	
0.565 129.389 	0 	0 	
0.575 125.53 	1.53647e-30 	0 	
0.585 108.399 	1.0658e-30 	0 	
0.595 61.9404 	4.00353e-31 	0 	
0.605 14.1685 	0 	0 	
0.615 1.43695 	0 	0 	
0.625 0.0951656 	0 	0 	
0.635 0.00435417 	0 	0 	
0.645 0.000131824 	0 	0 	
0.655 2.49591e-06 	0 	0 	
0.665 2.75853e-08 	0 	0 	
0.675 1.62097e-10 	0 	0 	
0.685 4.40863e-13 	0 	0 	
0.695 -1.76344e-14 	0 	0 	
0.705 1.76344e-14 	0 	0 	
0.715 -8.81725e-14 	0 	0 	
0.725 -5.29036e-14 	0 	0 	
0.735 -8.81725e-14 	0 	0 	
0.745 -8.81725e-14 	0 	0 	
0.755 -8.70877e-25 	-2.69201e-30 	0 	
0.765 7.0538e-14 	0 	0 	
0.775 -1.76345e-14 	0 	0 	
0.785 -1.76346e-14 	0 	0 	
0.795 1.76345e-14 	-2.81437e-30 	0 	
0.805 1.76345e-14 	-2.69201e-30 	0 	
0.815 -3.5269e-14 	0 	0 	
0.825 -1.76344e-14 	0 	0 	
0.835 -8.81725e-14 	0 	0 	
0.845 1.76346e-14 	0 	0 	
0.855 8.81725e-14 	0 	0 	
0.865 1.05807e-13 	0 	0 	
0.875 8.81724e-14 	0 	0 	
0.885 3.52691e-14 	0 	0 	
0.895 3.5269e-14 	0 	0 	
0.905 8.81725e-14 	0 	0 	
0.915 7.0538e-14 	0 	0 	
0.925 3.5269e-14 	0 	0 	
0.935 4.34645e-25 	0 	0 	
0.945 -3.5269e-14 	0 	0 	
0.955 8.81725e-14 	0 	0 	
0.965 3.5269e-14 	0 	0 	
0.975 -3.52689e-14 	0 	0 	
0.985 1.76345e-14 	0 	0 	
0.995 5.29035e-14 	0 	0 	
