0.005 -5.84952e-25 	0 	0 	
0.015 1.41076e-13 	0 	0 	
0.025 -2.35127e-14 	0 	0 	
0.035 -7.05381e-14 	0 	0 	
0.045 2.35127e-14 	0 	0 	
0.055 4.70256e-14 	0 	0 	
0.065 2.35127e-14 	0 	0 	
0.075 1.64589e-13 	0 	0 	
0.085 -2.35127e-14 	0 	0 	
0.095 1.88101e-13 	0 	0 	
0.105 2.92499e-24 	0 	0 	
0.115 -4.70253e-14 	0 	0 	
0.125 7.05381e-14 	0 	0 	
0.135 4.70253e-14 	0 	0 	
0.145 -2.35127e-14 	0 	0 	
0.155 -1.17563e-13 	0 	0 	
0.165 2.35127e-14 	0 	0 	
0.175 7.05381e-14 	0 	0 	
0.185 -2.35125e-14 	0 	0 	
0.195 -9.40507e-14 	0 	0 	
0.205 -1.41076e-13 	1.01154e-29 	0 	
0.215 4.70253e-14 	0 	0 	
0.225 -4.70253e-14 	0 	0 	
0.235 -4.70253e-14 	0 	0 	
0.245 -1.64589e-13 	0 	0 	
0.255 2.35127e-14 	0 	0 	
0.265 7.0538e-14 	0 	0 	
0.275 2.27602e-11 	0 	0 	
0.285 1.43251e-09 	0 	0 	
0.295 6.0602e-08 	0 	0 	
0.305 1.77523e-06 	0 	0 	
0.315 3.67361e-05 	0 	0 	
0.325 0.000544941 	0 	0 	
0.335 0.00585471 	0 	0 	
0.345 0.0458768 	0 	0 	
0.355 0.26361 	0 	0 	
0.365 1.11959 	0 	0 	
0.375 3.57665 	0 	0 	
0.385 8.87662 	0 	0 	
0.395 17.8927 	0 	0 	
0.405 30.7023 	0 	0 	
0.415 46.7135 	0 	0 	
0.425 64.9836 	0 	0 	
0.435 84.3311 	0 	0 	
0.445 103.081 	0 	0 	
0.455 118.522 	0 	0 	
0.465 127.436 	0 	0 	
0.475 129.995 	0 	0 	
0.485 130.213 	0 	0 	
0.495 130.189 	0 	0 	
0.505 130.167 	-4.9297e-31 	0 	
0.515 130.148 	8.63851e-31 	0 	
0.525 130.132 	-1.50019e-30 	0 	
0.535 130.118 	-9.35995e-31 	0 	
0.545 130.106 	-1.20702e-30 	0 	
0.555 130.093 	0 	0 	
0.565 130.08 	0 	0 	
0.575 130.063 	2.87428e-30 	0 	
0.585 130.019 	2.70477e-30 	0 	
0.595 129.772 	3.04341e-30 	0 	
0.605 128.374 	2.54343e-30 	0 	
0.615 121.979 	-2.06452e-30 	0 	
0.625 99.5412 	0 	0 	
0.635 50.7022 	0 	0 	
0.645 10.9661 	0 	0 	
0.655 1.28286 	0 	0 	
0.665 0.112902 	0 	0 	
0.675 0.0078494 	0 	0 	
0.685 0.000421369 	0 	0 	
0.695 1.69816e-05 	0 	0 	
0.705 4.99859e-07 	0 	0 	
0.715 1.04402e-08 	0 	0 	
0.725 1.49611e-10 	0 	0 	
0.735 1.4284e-12 	0 	0 	
0.745 3.5269e-14 	0 	0 	
0.755 -1.76344e-14 	-3.79329e-30 	0 	
0.765 5.29035e-14 	0 	0 	
0.775 -5.29035e-14 	0 	0 	
0.785 -5.29035e-14 	0 	0 	
0.795 -1.76344e-14 	-4.16038e-30 	0 	
0.805 -5.29035e-14 	-4.03801e-30 	0 	
0.815 1.76345e-14 	0 	0 	
0.825 -7.05381e-14 	0 	0 	
0.835 3.5269e-14 	0 	0 	
0.845 7.0538e-14 	0 	0 	
0.855 8.81726e-14 	0 	0 	
0.865 5.29035e-14 	0 	0 	
0.875 5.29036e-14 	0 	0 	
0.885 1.23442e-13 	0 	0 	
0.895 4.34626e-25 	0 	0 	
0.905 5.29035e-14 	0 	0 	
0.915 5.29035e-14 	0 	0 	
0.925 5.29035e-14 	0 	0 	
0.935 -3.52689e-14 	0 	0 	
0.945 -7.0538e-14 	0 	0 	
0.955 -7.05379e-14 	0 	0 	
0.965 8.81725e-14 	0 	0 	
0.975 1.76345e-14 	0 	0 	
0.985 1.76345e-14 	0 	0 	
0.995 -3.5269e-14 	0 	0 	
