0.005 4.90141e-14 	0 	0 	
0.015 8.22944e-14 	0 	0 	
0.025 9.99288e-14 	0 	0 	
0.035 9.69896e-14 	0 	0 	
0.045 6.75989e-14 	0 	0 	
0.055 2.93909e-14 	0 	0 	
0.065 2.9391e-15 	0 	0 	
0.075 -2.93908e-14 	0 	0 	
0.085 -4.40863e-14 	0 	0 	
0.095 -2.93908e-15 	0 	0 	
0.105 5.87818e-15 	0 	0 	
0.115 -4.11472e-14 	0 	0 	
0.125 -8.81725e-14 	0 	0 	
0.135 -1.46954e-13 	0 	0 	
0.145 -1.96918e-13 	-1.63152e-30 	0 	
0.155 -1.91041e-13 	1.30522e-30 	0 	
0.165 -1.49894e-13 	0 	0 	
0.175 -1.20503e-13 	0 	0 	
0.185 -7.93554e-14 	0 	0 	
0.195 -5.84725e-25 	0 	0 	
0.205 5.58426e-14 	0 	0 	
0.215 6.17208e-14 	0 	0 	
0.225 8.22944e-14 	1.63152e-31 	0 	
0.235 1.02868e-13 	5.54716e-30 	0 	
0.245 7.05381e-14 	6.52609e-31 	0 	
0.255 3.5269e-14 	0 	0 	
0.265 2.64518e-14 	0 	0 	
0.275 1.17564e-14 	0 	0 	
0.285 2.35127e-14 	0 	0 	
0.295 5.87817e-14 	0 	0 	
0.305 5.29036e-14 	0 	0 	
0.315 2.93909e-14 	0 	0 	
0.325 1.46955e-14 	0 	0 	
0.335 -1.46954e-14 	0 	0 	
0.345 -4.70253e-14 	0 	0 	
0.355 -4.70254e-14 	0 	0 	
0.365 -3.23299e-14 	0 	0 	
0.375 -3.82081e-14 	0 	0 	
0.385 -4.99645e-14 	0 	0 	
0.395 -5.87817e-14 	0 	0 	
0.405 -5.58427e-14 	0 	0 	
0.415 1.12998 	0 	0 	
0.425 8.32059 	0 	0 	
0.435 25.9427 	0 	0 	
0.445 51.1926 	0 	0 	
0.455 78.4226 	0 	0 	
0.465 102.709 	0 	0 	
0.475 119.991 	0 	0 	
0.485 128.715 	0 	0 	
0.495 130.478 	0 	0 	
0.505 129.497 	0 	0 	
0.515 128.816 	0 	0 	
0.525 129.094 	0 	0 	
0.535 130.099 	0 	0 	
0.545 130.995 	0 	0 	
0.555 130.828 	0 	0 	
0.565 126.512 	0 	0 	
0.575 107.248 	-1.75796e-30 	0 	
0.585 65.9574 	-2.01203e-31 	0 	
0.595 23.1043 	0 	0 	
0.605 3.06833 	0 	0 	
0.615 -7.05381e-14 	0 	0 	
0.625 -9.03768e-14 	0 	0 	
0.635 -8.59681e-14 	0 	0 	
0.645 -3.96776e-14 	0 	0 	
0.655 -2.20432e-15 	0 	0 	
0.665 -6.61293e-15 	0 	0 	
0.675 -2.20431e-14 	0 	0 	
0.685 -6.61293e-15 	0 	0 	
0.695 1.98388e-14 	0 	0 	
0.705 2.42475e-14 	0 	0 	
0.715 3.96776e-14 	0 	0 	
0.725 8.15596e-14 	0 	0 	
0.735 1.10216e-13 	0 	0 	
0.745 8.81726e-14 	0 	0 	
0.755 3.74734e-14 	0 	0 	
0.765 6.61295e-15 	0 	0 	
0.775 -4.40862e-15 	0 	0 	
0.785 -2.20431e-14 	0 	0 	
0.795 -2.64518e-14 	0 	0 	
0.805 2.2043e-15 	0 	0 	
0.815 2.42475e-14 	-4.89455e-30 	0 	
0.825 1.98389e-14 	0 	0 	
0.835 6.61295e-15 	0 	0 	
0.845 0 	0 	0 	
0.855 -4.40862e-15 	0 	0 	
0.865 -2.64518e-14 	0 	0 	
0.875 -5.06992e-14 	0 	0 	
0.885 -4.62906e-14 	0 	0 	
0.895 -2.42475e-14 	0 	0 	
0.905 -1.10216e-14 	0 	0 	
0.915 -1.76345e-14 	0 	0 	
0.925 -2.64518e-14 	0 	0 	
0.935 -2.42475e-14 	0 	0 	
0.945 -1.32259e-14 	0 	0 	
0.955 1.76345e-14 	0 	0 	
0.965 5.51078e-14 	0 	0 	
0.975 6.61294e-14 	0 	0 	
0.985 5.51079e-14 	0 	0 	
0.995 3.97106e-14 	0 	0 	
