0.005 2.93908e-14 	0 	0 	
0.015 8.81723e-14 	0 	0 	
0.025 -5.87817e-14 	0 	0 	
0.035 -7.34769e-14 	0 	0 	
0.045 -1.46954e-14 	0 	0 	
0.055 1.79467e-29 	0 	0 	
0.065 -5.8782e-14 	0 	0 	
0.075 -4.40863e-14 	0 	0 	
0.085 2.93912e-14 	0 	0 	
0.095 -2.93906e-14 	0 	0 	
0.105 5.87815e-14 	0 	0 	
0.115 1.46955e-14 	0 	0 	
0.125 1.76345e-13 	0 	0 	
0.135 1.76345e-13 	0 	0 	
0.145 2.20432e-13 	0 	0 	
0.155 1.02868e-13 	0 	0 	
0.165 2.05736e-13 	0 	0 	
0.175 1.76345e-13 	0 	0 	
0.185 1.76345e-13 	0 	0 	
0.195 1.46954e-14 	0 	0 	
0.205 1.46955e-14 	0 	0 	
0.215 2.93908e-14 	0 	0 	
0.225 -1.02868e-13 	0 	0 	
0.235 -1.17563e-13 	0 	0 	
0.245 -1.76345e-13 	0 	0 	
0.255 -8.81722e-14 	0 	0 	
0.265 -1.76345e-13 	0 	0 	
0.275 -1.6165e-13 	0 	0 	
0.285 -5.87816e-14 	0 	0 	
0.295 -8.81728e-14 	0 	0 	
0.305 7.34772e-14 	0 	0 	
0.315 3.73705e-11 	0 	0 	
0.325 9.81335e-09 	0 	0 	
0.335 1.06327e-06 	0 	0 	
0.345 5.56819e-05 	0 	0 	
0.355 0.00155435 	0 	0 	
0.365 0.0246351 	0 	0 	
0.375 0.231468 	0 	0 	
0.385 1.33927 	0 	0 	
0.395 5.02847 	0 	0 	
0.405 13.2412 	0 	0 	
0.415 26.747 	0 	0 	
0.425 44.8511 	0 	0 	
0.435 66.0951 	0 	0 	
0.445 88.6207 	0 	0 	
0.455 109.618 	0 	0 	
0.465 124.366 	0 	0 	
0.475 129.677 	0 	0 	
0.485 130.206 	0 	0 	
0.495 130.183 	0 	0 	
0.505 130.158 	0 	0 	
0.515 130.139 	0 	0 	
0.525 130.123 	0 	0 	
0.535 130.108 	0 	0 	
0.545 130.095 	0 	0 	
0.555 130.081 	0 	0 	
0.565 130.065 	0 	0 	
0.575 130.021 	0 	0 	
0.585 129.693 	0 	0 	
0.595 127.263 	0 	0 	
0.605 113.86 	0 	0 	
0.615 66.7772 	0 	0 	
0.625 11.9069 	0 	0 	
0.635 0.737466 	0 	0 	
0.645 0.0287707 	0 	0 	
0.655 0.00072241 	0 	0 	
0.665 1.05467e-05 	0 	0 	
0.675 7.87526e-08 	0 	0 	
0.685 2.51071e-10 	0 	0 	
0.695 2.31453e-13 	0 	0 	
0.705 -1.10217e-14 	0 	0 	
0.715 -7.71511e-14 	0 	0 	
0.725 -8.81726e-14 	0 	0 	
0.735 -1.54302e-13 	0 	0 	
0.745 -8.81726e-14 	0 	0 	
0.755 -1.21237e-13 	0 	0 	
0.765 -1.32259e-13 	0 	0 	
0.775 -1.54302e-13 	0 	0 	
0.785 -9.91939e-14 	0 	0 	
0.795 -1.21237e-13 	0 	0 	
0.805 1.36069e-24 	0 	0 	
0.815 3.30647e-14 	0 	0 	
0.825 2.20432e-14 	0 	0 	
0.835 -2.20432e-14 	0 	0 	
0.845 4.40863e-14 	0 	0 	
0.855 8.81725e-14 	0 	0 	
0.865 7.7151e-14 	0 	0 	
0.875 3.30646e-14 	0 	0 	
0.885 4.40863e-14 	0 	0 	
0.895 -1.10216e-14 	0 	0 	
0.905 -3.30646e-14 	0 	0 	
0.915 -3.8886e-40 	0 	0 	
0.925 5.51079e-14 	0 	0 	
0.935 2.2043e-14 	0 	0 	
0.945 8.81725e-14 	0 	0 	
0.955 1.21237e-13 	0 	0 	
0.965 5.51079e-14 	0 	0 	
0.975 3.30646e-14 	0 	0 	
0.985 1.10216e-14 	0 	0 	
0.995 2.20432e-14 	0 	0 	
