0.005 -6.8187e-15 	0 	0 	
0.015 -7.1596e-14 	0 	0 	
0.025 -1.7047e-14 	0 	0 	
0.035 -3.40948e-15 	0 	0 	
0.045 -1.26145e-13 	0 	0 	
0.055 -4.43215e-14 	0 	0 	
0.065 -6.47774e-14 	0 	0 	
0.075 -1.70466e-14 	0 	0 	
0.085 -1.67058e-13 	0 	0 	
0.095 -9.54617e-14 	0 	0 	
0.105 6.47772e-14 	0 	0 	
0.115 2.38651e-14 	0 	0 	
0.125 -5.114e-14 	0 	0 	
0.135 1.0228e-14 	0 	0 	
0.145 1.5683e-13 	0 	0 	
0.155 1.26145e-13 	0 	0 	
0.165 3.40935e-14 	0 	0 	
0.175 1.5342e-13 	0 	0 	
0.185 1.39783e-13 	-1.01725e-29 	0 	
0.195 2.0797e-13 	0 	0 	
0.205 1.22736e-13 	0 	0 	
0.215 1.36376e-14 	0 	0 	
0.225 8.52338e-14 	0 	0 	
0.235 1.36374e-13 	0 	0 	
0.245 4.09117e-14 	0 	0 	
0.255 1.46602e-13 	-1.06457e-29 	0 	
0.265 7.19371e-13 	-5.20455e-30 	0 	
0.275 2.23908e-10 	0 	0 	
0.285 3.29131e-08 	0 	0 	
0.295 2.24556e-06 	0 	0 	
0.305 8.38894e-05 	0 	0 	
0.315 0.00182613 	0 	0 	
0.325 0.0236138 	0 	0 	
0.335 0.189929 	0 	0 	
0.345 0.989585 	0 	0 	
0.355 3.51539 	-5.01685e-30 	0 	
0.365 9.0481 	0 	0 	
0.375 18.1758 	0 	0 	
0.385 30.5883 	0 	0 	
0.395 45.504 	-2.45619e-30 	0 	
0.405 62.0774 	0 	0 	
0.415 79.4872 	0 	0 	
0.425 96.7786 	0 	0 	
0.435 112.438 	0 	0 	
0.445 123.939 	0 	0 	
0.455 129.172 	0 	0 	
0.465 130.155 	0 	0 	
0.475 130.184 	0 	0 	
0.485 130.163 	0 	0 	
0.495 130.146 	5.35181e-31 	0 	
0.505 130.132 	0 	0 	
0.515 130.12 	0 	0 	
0.525 130.108 	0 	0 	
0.535 130.092 	0 	0 	
0.545 130.069 	0 	0 	
0.555 130.032 	0 	0 	
0.565 -66551.8 	0 	0 	
0.575 -3.11718e+11 	0 	0 	
0.585 -2.11194e+16 	0 	0 	
0.595 -1.12025e+21 	0 	0 	
0.605 -1.1001e+24 	0 	0 	
0.615 -7.80164e+27 	0 	0 	
0.625 2.38039e+28 	0 	0 	
0.635 2.44687e+25 	0 	0 	
0.645 1.85407e+20 	0 	0 	
0.655 4.00602e+13 	0 	0 	
0.665 1.24447e+09 	0 	0 	
0.675 6402.28 	0 	0 	
0.685 0.0987928 	0 	0 	
0.695 0.00247817 	0 	0 	
0.705 4.32016e-05 	0 	0 	
0.715 4.58946e-07 	0 	0 	
0.725 2.41021e-09 	0 	0 	
0.735 5.00918e-12 	0 	0 	
0.745 1.15065e-13 	0 	0 	
0.755 5.114e-14 	0 	0 	
0.765 1.0228e-14 	0 	0 	
0.775 5.114e-14 	0 	0 	
0.785 4.4073e-25 	0 	0 	
0.795 1.73876e-13 	0 	0 	
0.805 1.81547e-13 	0 	0 	
0.815 -2.81271e-14 	0 	0 	
0.825 3.83552e-14 	0 	0 	
0.835 -5.62541e-14 	0 	0 	
0.845 3.83555e-14 	0 	0 	
0.855 -7.92669e-14 	0 	0 	
0.865 5.8811e-14 	0 	0 	
0.875 1.2785e-14 	0 	0 	
0.885 -2.3013e-14 	0 	0 	
0.895 9.20524e-14 	0 	0 	
0.905 4.34694e-14 	0 	0 	
0.915 3.3241e-14 	0 	0 	
0.925 2.55701e-14 	0 	0 	
0.935 -1.2785e-14 	0 	0 	
0.945 -8.1824e-14 	0 	0 	
0.955 1.02281e-14 	0 	0 	
0.965 9.2052e-14 	0 	0 	
0.975 1.27852e-14 	0 	0 	
0.985 5.6254e-14 	0 	0 	
0.995 -4.09125e-14 	0 	0 	
