0.005 3.06837e-14 	0 	0 	
0.015 5.114e-14 	0 	0 	
0.025 3.40933e-14 	0 	0 	
0.035 -1.26218e-29 	0 	0 	
0.045 4.09123e-14 	0 	0 	
0.055 -2.45472e-13 	0 	0 	
0.065 -3.06841e-14 	0 	0 	
0.075 -1.0228e-13 	0 	0 	
0.085 6.1368e-14 	0 	0 	
0.095 1.15917e-13 	0 	0 	
0.105 -1.19327e-13 	0 	0 	
0.115 3.06839e-14 	0 	0 	
0.125 -3.40933e-14 	0 	0 	
0.135 -1.63648e-13 	0 	0 	
0.145 9.54618e-14 	0 	0 	
0.155 -3.75024e-14 	0 	0 	
0.165 -4.77305e-14 	0 	0 	
0.175 -1.70466e-14 	0 	0 	
0.185 1.36374e-13 	-9.46281e-30 	0 	
0.195 1.5342e-13 	0 	0 	
0.205 -7.50057e-14 	0 	0 	
0.215 1.26146e-13 	0 	0 	
0.225 1.87514e-13 	0 	0 	
0.235 -6.47772e-14 	0 	0 	
0.245 1.80695e-13 	0 	0 	
0.255 7.15962e-14 	-9.93596e-30 	0 	
0.265 3.40937e-15 	-4.8497e-30 	0 	
0.275 6.81867e-14 	0 	0 	
0.285 1.64058e-11 	0 	0 	
0.295 4.76461e-09 	0 	0 	
0.305 5.62149e-07 	0 	0 	
0.315 3.19416e-05 	0 	0 	
0.325 0.000926197 	0 	0 	
0.335 0.0149561 	0 	0 	
0.345 0.142922 	0 	0 	
0.355 0.853437 	-4.50512e-30 	0 	
0.365 3.32568 	0 	0 	
0.375 9.05175 	0 	0 	
0.385 18.7971 	0 	0 	
0.395 32.2362 	-7.85587e-31 	0 	
0.405 48.4604 	0 	0 	
0.415 66.4496 	0 	0 	
0.425 85.1702 	0 	0 	
0.435 103.277 	0 	0 	
0.445 118.457 	0 	0 	
0.455 127.446 	0 	0 	
0.465 129.994 	0 	0 	
0.475 130.193 	0 	0 	
0.485 130.171 	0 	0 	
0.495 130.151 	7.13678e-31 	0 	
0.505 130.136 	0 	0 	
0.515 130.123 	0 	0 	
0.525 130.111 	0 	0 	
0.535 130.097 	0 	0 	
0.545 130.079 	0 	0 	
0.555 130.051 	0 	0 	
0.565 130.007 	0 	0 	
0.575 129.947 	0 	0 	
0.585 -11893.4 	0 	0 	
0.595 -1.08456e+07 	0 	0 	
0.605 -2.75661e+15 	0 	0 	
0.615 6.80771e+15 	0 	0 	
0.625 2.9282e+12 	0 	0 	
0.635 3.65359e+12 	0 	0 	
0.645 3.0067e+07 	0 	0 	
0.655 5109.41 	0 	0 	
0.665 1.16612 	0 	0 	
0.675 0.0346401 	0 	0 	
0.685 0.000708954 	0 	0 	
0.695 8.47896e-06 	0 	0 	
0.705 5.37849e-08 	0 	0 	
0.715 1.46279e-10 	0 	0 	
0.725 1.66205e-13 	0 	0 	
0.735 8.18244e-14 	0 	0 	
0.745 7.4153e-14 	0 	0 	
0.755 3.0684e-14 	0 	0 	
0.765 -4.60263e-14 	0 	0 	
0.775 1.2785e-14 	0 	0 	
0.785 8.6938e-14 	0 	0 	
0.795 9.4609e-14 	0 	0 	
0.805 8.43815e-14 	0 	0 	
0.815 3.3241e-14 	0 	0 	
0.825 6.3925e-14 	0 	0 	
0.835 1.78992e-14 	0 	0 	
0.845 -7.15959e-14 	0 	0 	
0.855 2.55705e-15 	0 	0 	
0.865 5.6254e-14 	0 	0 	
0.875 -3.8355e-14 	0 	0 	
0.885 -5.6254e-14 	0 	0 	
0.895 3.8355e-14 	0 	0 	
0.905 -3.83549e-14 	0 	0 	
0.915 -7.4153e-14 	0 	0 	
0.925 2.55697e-14 	0 	0 	
0.935 -8.94953e-14 	0 	0 	
0.945 1.53421e-14 	0 	0 	
0.955 2.3013e-14 	0 	0 	
0.965 1.2785e-14 	0 	0 	
0.975 -2.55699e-14 	0 	0 	
0.985 -1.0228e-14 	0 	0 	
0.995 1.0228e-13 	0 	0 	
