0.005 -1.05807e-13 	0 	0 	
0.015 7.05381e-14 	0 	0 	
0.025 7.0538e-14 	0 	0 	
0.035 -3.94826e-24 	0 	0 	
0.045 -7.0538e-14 	0 	0 	
0.055 7.0538e-14 	0 	0 	
0.065 -1.05807e-13 	0 	0 	
0.075 -1.05807e-13 	0 	0 	
0.085 7.0538e-14 	0 	0 	
0.095 3.5269e-14 	0 	0 	
0.105 7.0538e-14 	0 	0 	
0.115 -9.35174e-30 	0 	0 	
0.125 1.41076e-13 	-1.59073e-30 	0 	
0.135 3.52689e-14 	0 	0 	
0.145 -1.05807e-13 	0 	0 	
0.155 -7.0538e-14 	0 	0 	
0.165 -1.76345e-13 	0 	0 	
0.175 -2.46883e-13 	-3.42619e-30 	0 	
0.185 2.82152e-13 	-3.18146e-30 	0 	
0.195 1.31568e-24 	0 	0 	
0.205 -2.11614e-13 	0 	0 	
0.215 1.05807e-13 	0 	0 	
0.225 -7.05379e-14 	0 	0 	
0.235 -1.41076e-13 	0 	0 	
0.245 -1.76345e-13 	0 	0 	
0.255 3.52689e-14 	-3.91565e-30 	0 	
0.265 -7.0538e-14 	-3.67093e-30 	0 	
0.275 -7.0538e-14 	0 	0 	
0.285 3.52689e-14 	0 	0 	
0.295 2.11614e-13 	0 	0 	
0.305 -1.41076e-13 	0 	0 	
0.315 -1.26218e-29 	0 	0 	
0.325 -1.76345e-13 	0 	0 	
0.335 -3.5269e-14 	0 	0 	
0.345 1.05807e-13 	0 	0 	
0.355 -1.05807e-13 	-3.42619e-30 	0 	
0.365 -3.5269e-14 	0 	0 	
0.375 1.05807e-13 	0 	0 	
0.385 7.0538e-14 	0 	0 	
0.395 3.52689e-14 	0 	0 	
0.405 3.93637e-24 	0 	0 	
0.415 7.05381e-14 	3.67093e-30 	0 	
0.425 0.00018993 	3.42619e-30 	0 	
0.435 0.0561771 	-1.71329e-30 	0 	
0.445 1.6344 	3.19382e-30 	0 	
0.455 12.1083 	2.52707e-31 	0 	
0.465 39.2916 	8.20688e-31 	0 	
0.475 80.1421 	0 	0 	
0.485 118.933 	2.65165e-31 	0 	
0.495 130.118 	3.69711e-31 	0 	
0.505 130.18 	-1.8559e-31 	0 	
0.515 130.128 	0 	0 	
0.525 130.037 	0 	0 	
0.535 127.974 	0 	0 	
0.545 93.5937 	0 	0 	
0.555 31.0797 	0 	0 	
0.565 0.790484 	0 	0 	
0.575 0.00142697 	0 	0 	
0.585 -7.93555e-14 	0 	0 	
0.595 -2.94438e-24 	0 	0 	
0.605 1.05807e-13 	0 	0 	
0.615 1.58711e-13 	0 	0 	
0.625 2.64515e-14 	0 	0 	
0.635 2.11614e-13 	0 	0 	
0.645 -5.29035e-14 	0 	0 	
0.655 5.29037e-14 	0 	0 	
0.665 2.64518e-14 	0 	0 	
0.675 3.27069e-35 	0 	0 	
0.685 7.93553e-14 	0 	0 	
0.695 1.05807e-13 	0 	0 	
0.705 1.05807e-13 	0 	0 	
0.715 2.6452e-14 	0 	0 	
0.725 -1.05807e-13 	0 	0 	
0.735 -1.32259e-13 	0 	0 	
0.745 -2.64518e-14 	0 	0 	
0.755 2.64517e-14 	0 	0 	
0.765 -7.93555e-14 	0 	0 	
0.775 7.93555e-14 	0 	0 	
0.785 -2.6452e-14 	0 	0 	
0.795 -2.6452e-14 	0 	0 	
0.805 7.93553e-14 	0 	0 	
0.815 -5.29037e-14 	0 	0 	
0.825 2.64518e-14 	0 	0 	
0.835 -2.64517e-14 	0 	0 	
0.845 1.32259e-13 	0 	0 	
0.855 1.32259e-13 	0 	0 	
0.865 5.29035e-14 	0 	0 	
0.875 2.64515e-14 	0 	0 	
0.885 -1.05807e-13 	0 	0 	
0.895 -2.6452e-14 	0 	0 	
0.905 -1.05807e-13 	0 	0 	
0.915 -1.32259e-13 	0 	0 	
0.925 2.64517e-14 	0 	0 	
0.935 -1.95591e-24 	0 	0 	
0.945 -1.05807e-13 	0 	0 	
0.955 7.93555e-14 	0 	0 	
0.965 2.92851e-24 	0 	0 	
0.975 -1.05807e-13 	0 	0 	
0.985 2.92854e-24 	0 	0 	
0.995 2.64515e-14 	0 	0 	
