0.005 1.2397e-13 	0 	0 	
0.015 3.35056e-15 	0 	0 	
0.025 1.1727e-13 	0 	0 	
0.035 6.53361e-14 	0 	0 	
0.045 3.5181e-14 	0 	0 	
0.055 1.17269e-14 	0 	0 	
0.065 1.55801e-13 	0 	0 	
0.075 2.51291e-14 	0 	0 	
0.085 5.19337e-14 	0 	0 	
0.095 6.19855e-14 	0 	0 	
0.105 -4.18818e-14 	0 	0 	
0.115 8.87899e-14 	0 	0 	
0.125 1.67527e-14 	0 	0 	
0.135 -1.22295e-13 	0 	0 	
0.145 -1.40723e-13 	0 	0 	
0.155 3.35054e-14 	0 	0 	
0.165 9.88416e-14 	0 	0 	
0.175 -3.35056e-14 	0 	0 	
0.185 -8.37614e-15 	0 	0 	
0.195 7.53878e-14 	0 	0 	
0.205 -5.0259e-15 	0 	0 	
0.215 -6.36606e-14 	0 	0 	
0.225 4.18819e-14 	0 	0 	
0.235 1.27321e-13 	0 	0 	
0.245 6.70114e-14 	0 	0 	
0.255 -4.52324e-14 	0 	0 	
0.265 -5.8635e-14 	0 	0 	
0.275 5.8635e-14 	0 	0 	
0.285 1.64847e-12 	0 	0 	
0.295 7.324e-10 	0 	0 	
0.305 1.15986e-07 	0 	0 	
0.315 8.54052e-06 	0 	0 	
0.325 0.000304188 	0 	0 	
0.335 0.00592578 	0 	0 	
0.345 0.0698007 	0 	0 	
0.355 0.492153 	0 	0 	
0.365 2.20449 	0 	0 	
0.375 6.76875 	0 	0 	
0.385 15.336 	0 	0 	
0.395 27.9238 	0 	0 	
0.405 43.7352 	0 	0 	
0.415 61.7043 	0 	0 	
0.425 80.7443 	0 	0 	
0.435 99.5429 	0 	0 	
0.445 115.877 	0 	0 	
0.455 126.381 	0 	0 	
0.465 129.856 	1.0507e-30 	0 	
0.475 130.194 	0 	0 	
0.485 130.175 	0 	0 	
0.495 130.155 	0 	0 	
0.505 130.139 	0 	0 	
0.515 130.127 	0 	0 	
0.525 130.116 	0 	0 	
0.535 130.107 	0 	0 	
0.545 130.098 	0 	0 	
0.555 130.089 	0 	0 	
0.565 130.081 	0 	0 	
0.575 130.072 	0 	0 	
0.585 130.062 	0 	0 	
0.595 130.048 	0 	0 	
0.605 129.993 	0 	0 	
0.615 129.701 	0 	0 	
0.625 130.814 	0 	0 	
0.635 128.384 	0 	0 	
0.645 63.181 	0 	0 	
0.655 7.46839 	0 	0 	
0.665 0.294882 	0 	0 	
0.675 0.00840512 	0 	0 	
0.685 0.000152325 	0 	0 	
0.695 1.47938e-06 	0 	0 	
0.705 7.23937e-09 	0 	0 	
0.715 1.36099e-11 	0 	0 	
0.725 -2.51292e-14 	0 	0 	
0.735 7.4131e-14 	0 	0 	
0.745 5.77971e-14 	0 	0 	
0.755 3.39243e-14 	0 	0 	
0.765 2.63855e-14 	0 	0 	
0.775 5.02584e-14 	0 	0 	
0.785 3.64373e-14 	0 	0 	
0.795 -5.65406e-14 	0 	0 	
0.805 3.2668e-14 	0 	0 	
0.815 7.91569e-14 	0 	0 	
0.825 -1.25646e-14 	0 	0 	
0.835 4.90018e-14 	0 	0 	
0.845 5.65408e-14 	0 	0 	
0.855 8.29263e-14 	0 	0 	
0.865 2.51292e-14 	0 	0 	
0.875 -6.2823e-15 	0 	0 	
0.885 5.02584e-14 	0 	0 	
0.895 1.24389e-13 	0 	0 	
0.905 1.14338e-13 	0 	0 	
0.915 7.53875e-14 	0 	0 	
0.925 1.25647e-14 	0 	0 	
0.935 -3.76938e-15 	0 	0 	
0.945 1.38209e-14 	0 	0 	
0.955 6.03099e-14 	0 	0 	
0.965 2.51292e-15 	0 	0 	
0.975 -9.42345e-14 	0 	0 	
0.985 1.28159e-13 	0 	0 	
0.995 -1.0303e-13 	0 	0 	
