0.005 4.55778e-14 	0 	0 	
0.015 8.52334e-14 	0 	0 	
0.025 1.02868e-13 	0 	0 	
0.035 9.11115e-14 	0 	0 	
0.045 3.52689e-14 	0 	0 	
0.055 -2.35127e-14 	0 	0 	
0.065 -2.64518e-14 	0 	0 	
0.075 -1.46954e-14 	0 	0 	
0.085 -2.35127e-14 	0 	0 	
0.095 -5.87815e-15 	0 	0 	
0.105 2.64518e-14 	0 	0 	
0.115 2.05736e-14 	0 	0 	
0.125 -2.05736e-14 	0 	0 	
0.135 -8.52335e-14 	0 	0 	
0.145 -1.46954e-13 	-1.46837e-30 	0 	
0.155 -1.6165e-13 	1.30522e-30 	0 	
0.165 -1.35198e-13 	0 	0 	
0.175 -1.02868e-13 	0 	0 	
0.185 -5.29036e-14 	0 	0 	
0.195 2.35127e-14 	0 	0 	
0.205 6.46599e-14 	0 	0 	
0.215 5.87817e-14 	0 	0 	
0.225 7.0538e-14 	0 	0 	
0.235 8.22944e-14 	4.24196e-30 	0 	
0.245 5.29035e-14 	6.52609e-31 	0 	
0.255 1.46954e-14 	0 	0 	
0.265 -2.93907e-15 	0 	0 	
0.275 -2.93908e-15 	0 	0 	
0.285 0 	0 	0 	
0.295 1.17563e-14 	0 	0 	
0.305 2.93909e-14 	0 	0 	
0.315 3.233e-14 	0 	0 	
0.325 3.23299e-14 	0 	0 	
0.335 1.46954e-14 	0 	0 	
0.345 -2.35127e-14 	0 	0 	
0.355 -3.82081e-14 	0 	0 	
0.365 -3.23299e-14 	0 	0 	
0.375 -2.93908e-14 	0 	0 	
0.385 -3.23299e-14 	0 	0 	
0.395 -4.40863e-14 	0 	0 	
0.405 -3.82081e-14 	0 	0 	
0.415 8.81725e-15 	0 	0 	
0.425 4.11472e-14 	0 	0 	
0.435 2.77577 	0 	0 	
0.445 15.2053 	0 	0 	
0.455 40.1271 	0 	0 	
0.465 71.6458 	0 	0 	
0.475 101.325 	0 	0 	
0.485 121.124 	0 	0 	
0.495 128.439 	0 	0 	
0.505 129.466 	0 	0 	
0.515 129.864 	0 	0 	
0.525 131.029 	0 	0 	
0.535 131.66 	0 	0 	
0.545 126.321 	0 	0 	
0.555 103.869 	0 	0 	
0.565 60.4356 	0 	0 	
0.575 19.1489 	-4.78182e-31 	0 	
0.585 1.98265 	0 	0 	
0.595 4.40863e-15 	0 	0 	
0.605 -3.30647e-14 	0 	0 	
0.615 -6.83337e-14 	0 	0 	
0.625 -7.05381e-14 	0 	0 	
0.635 -4.84949e-14 	0 	0 	
0.645 -1.76345e-14 	0 	0 	
0.655 2.20431e-15 	0 	0 	
0.665 -1.10216e-14 	0 	0 	
0.675 -2.64518e-14 	0 	0 	
0.685 -6.61295e-15 	0 	0 	
0.695 1.98388e-14 	0 	0 	
0.705 2.86561e-14 	0 	0 	
0.715 3.5269e-14 	0 	0 	
0.725 5.06992e-14 	0 	0 	
0.735 6.61294e-14 	0 	0 	
0.745 5.51079e-14 	0 	0 	
0.755 2.42475e-14 	0 	0 	
0.765 4.40863e-15 	0 	0 	
0.775 -4.40862e-15 	0 	0 	
0.785 -2.20431e-14 	0 	0 	
0.795 -2.64518e-14 	0 	0 	
0.805 2.2043e-15 	0 	0 	
0.815 2.42475e-14 	-3.67093e-30 	0 	
0.825 1.98389e-14 	0 	0 	
0.835 6.61295e-15 	0 	0 	
0.845 0 	0 	0 	
0.855 -2.20431e-15 	0 	0 	
0.865 -1.32259e-14 	0 	0 	
0.875 -1.76345e-14 	0 	0 	
0.885 2.20433e-15 	0 	0 	
0.895 4.40864e-15 	0 	0 	
0.905 -2.64518e-14 	0 	0 	
0.915 -3.96777e-14 	0 	0 	
0.925 -2.42475e-14 	0 	0 	
0.935 -6.61295e-15 	0 	0 	
0.945 4.40862e-15 	0 	0 	
0.955 1.54302e-14 	0 	0 	
0.965 3.30647e-14 	0 	0 	
0.975 4.1882e-14 	0 	0 	
0.985 2.42475e-14 	0 	0 	
0.995 4.40863e-15 	0 	0 	
