0.005 -7.27422e-14 	0 	0 	
0.015 -3.233e-14 	0 	0 	
0.025 -2.42475e-14 	0 	0 	
0.035 -1.05072e-13 	0 	0 	
0.045 -6.466e-14 	0 	0 	
0.055 -1.05073e-13 	0 	0 	
0.065 4.84946e-14 	0 	0 	
0.075 -2.42475e-14 	0 	0 	
0.085 -1.13155e-13 	0 	0 	
0.095 8.08251e-15 	0 	0 	
0.105 7.27424e-14 	0 	0 	
0.115 2.42476e-14 	0 	0 	
0.125 1.61649e-14 	0 	0 	
0.135 -7.27425e-14 	0 	0 	
0.145 1.21237e-13 	0 	0 	
0.155 -5.65775e-14 	0 	0 	
0.165 -3.23299e-14 	0 	0 	
0.175 5.65774e-14 	0 	0 	
0.185 4.04121e-14 	0 	0 	
0.195 8.08267e-15 	0 	0 	
0.205 1.13155e-13 	0 	0 	
0.215 -1.6165e-14 	0 	0 	
0.225 3.23299e-14 	0 	0 	
0.235 -1.61649e-13 	0 	0 	
0.245 -6.466e-14 	0 	0 	
0.255 -1.6165e-14 	0 	0 	
0.265 8.08246e-15 	0 	0 	
0.275 -1.6165e-14 	0 	0 	
0.285 1.6165e-14 	0 	0 	
0.295 -8.0825e-15 	0 	0 	
0.305 5.87618e-25 	0 	0 	
0.315 8.89075e-14 	2.24334e-30 	0 	
0.325 -4.04126e-14 	0 	0 	
0.335 1.6165e-14 	-2.24334e-30 	0 	
0.345 -2.42475e-14 	0 	0 	
0.355 -2.42475e-14 	-1.12167e-30 	0 	
0.365 -4.04121e-14 	4.48668e-30 	0 	
0.375 1.21237e-13 	0 	0 	
0.385 8.0825e-15 	0 	0 	
0.395 -2.42471e-14 	0 	0 	
0.405 -1.45485e-13 	0 	0 	
0.415 1.05072e-13 	0 	0 	
0.425 6.466e-14 	0 	0 	
0.435 0.00121112 	0 	0 	
0.445 0.173036 	0 	0 	
0.455 3.4897 	0 	0 	
0.465 20.4354 	-2.13968e-30 	0 	
0.475 57.7354 	0 	0 	
0.485 105.327 	0 	0 	
0.495 129.429 	-4.23631e-31 	0 	
0.505 130.189 	-2.57215e-31 	0 	
0.515 130.117 	0 	0 	
0.525 129.279 	0 	0 	
0.535 116.953 	0 	0 	
0.545 51.1937 	0 	0 	
0.555 2.10884 	0 	0 	
0.565 0.00865144 	0 	0 	
0.575 2.42474e-14 	0 	0 	
0.585 2.42474e-14 	0 	0 	
0.595 -2.42476e-14 	0 	0 	
0.605 -7.36618e-20 	0 	0 	
0.615 -1.81857e-14 	0 	0 	
0.625 3.63712e-14 	0 	0 	
0.635 1.81856e-14 	0 	0 	
0.645 -6.06186e-15 	0 	0 	
0.655 -1.81857e-14 	0 	0 	
0.665 3.03094e-14 	0 	0 	
0.675 1.81857e-14 	0 	0 	
0.685 2.42474e-14 	0 	0 	
0.695 -1.32899e-21 	0 	0 	
0.705 -3.63713e-14 	0 	0 	
0.715 -6.06186e-14 	0 	0 	
0.725 7.27425e-14 	0 	0 	
0.735 -4.24332e-14 	0 	0 	
0.745 3.03095e-14 	0 	0 	
0.755 1.15176e-13 	0 	0 	
0.765 -4.24331e-14 	0 	0 	
0.775 -8.48661e-14 	0 	0 	
0.785 -6.06188e-14 	0 	0 	
0.795 -1.81857e-14 	0 	0 	
0.805 -1.21237e-14 	0 	0 	
0.815 6.66806e-14 	0 	0 	
0.825 -3.03094e-14 	0 	0 	
0.835 -1.81856e-14 	0 	0 	
0.845 -6.06186e-15 	0 	0 	
0.855 -1.81855e-14 	0 	0 	
0.865 1.21237e-13 	0 	0 	
0.875 -4.84946e-14 	0 	0 	
0.885 3.03094e-14 	0 	0 	
0.895 -6.06188e-14 	0 	0 	
0.905 -4.84949e-14 	0 	0 	
0.915 -4.24332e-14 	0 	0 	
0.925 2.42474e-14 	0 	0 	
0.935 -4.8495e-14 	0 	0 	
0.945 -3.63712e-14 	0 	0 	
0.955 -6.06186e-15 	0 	0 	
0.965 -6.06197e-15 	0 	0 	
0.975 -7.27425e-14 	0 	0 	
0.985 -1.15175e-13 	0 	0 	
0.995 -4.24331e-14 	0 	0 	
