0.005 -7.50058e-14 	0 	0 	
0.015 -1.26145e-13 	0 	0 	
0.025 6.81865e-14 	0 	0 	
0.035 -6.81855e-15 	0 	0 	
0.045 1.70463e-14 	0 	0 	
0.055 -9.88707e-14 	0 	0 	
0.065 -1.02281e-14 	0 	0 	
0.075 -1.5342e-13 	0 	0 	
0.085 1.15918e-13 	0 	0 	
0.095 6.81865e-14 	0 	0 	
0.105 3.4093e-15 	0 	0 	
0.115 -3.409e-15 	0 	0 	
0.125 1.0228e-13 	0 	0 	
0.135 6.47774e-14 	0 	0 	
0.145 -2.04562e-14 	0 	0 	
0.155 5.11399e-14 	0 	0 	
0.165 -1.36374e-14 	0 	0 	
0.175 -5.11402e-14 	0 	0 	
0.185 7.84151e-14 	-5.67768e-30 	0 	
0.195 6.81866e-15 	0 	0 	
0.205 5.45496e-14 	0 	0 	
0.215 -6.47775e-14 	0 	0 	
0.225 1.19327e-13 	0 	0 	
0.235 -5.11403e-14 	0 	0 	
0.245 1.0228e-13 	0 	0 	
0.255 4.09117e-14 	-5.20455e-30 	0 	
0.265 1.29555e-13 	-2.60227e-30 	0 	
0.275 5.11401e-14 	0 	0 	
0.285 2.72748e-14 	0 	0 	
0.295 -6.13681e-14 	0 	0 	
0.305 -2.72748e-14 	0 	0 	
0.315 -6.81868e-14 	0 	0 	
0.325 -3.40935e-14 	0 	0 	
0.335 2.72748e-14 	0 	0 	
0.345 -1.19327e-13 	0 	0 	
0.355 1.19327e-13 	-2.36571e-30 	0 	
0.365 -4.0912e-14 	0 	0 	
0.375 9.12314e-09 	0 	0 	
0.385 1.14783e-05 	0 	0 	
0.395 0.00161998 	0 	0 	
0.405 0.062668 	0 	0 	
0.415 0.879333 	0 	0 	
0.425 5.36219 	0 	0 	
0.435 17.7415 	0 	0 	
0.445 39.2388 	0 	0 	
0.455 67.4484 	0 	0 	
0.465 97.7958 	0 	0 	
0.475 121.75 	0 	0 	
0.485 129.83 	0 	0 	
0.495 130.202 	7.14599e-31 	0 	
0.505 130.166 	0 	0 	
0.515 130.137 	0 	0 	
0.525 130.113 	0 	0 	
0.535 130.091 	0 	0 	
0.545 130.058 	0 	0 	
0.555 129.795 	0 	0 	
0.565 129.098 	0 	0 	
0.575 109.185 	0 	0 	
0.585 37.4767 	0 	0 	
0.595 1.63216 	0 	0 	
0.605 0.0230094 	0 	0 	
0.615 0.000106395 	0 	0 	
0.625 5.99948e-08 	0 	0 	
0.635 -4.0912e-14 	0 	0 	
0.645 -2.557e-14 	0 	0 	
0.655 -3.06844e-14 	0 	0 	
0.665 5.36972e-14 	0 	0 	
0.675 6.39253e-14 	0 	0 	
0.685 1.20179e-13 	0 	0 	
0.695 5.114e-14 	0 	0 	
0.705 5.11399e-14 	0 	0 	
0.715 5.11419e-15 	0 	0 	
0.725 2.50008e-19 	0 	0 	
0.735 -2.55697e-15 	0 	0 	
0.745 -7.41535e-14 	0 	0 	
0.755 2.557e-15 	0 	0 	
0.765 3.8355e-14 	0 	0 	
0.775 -1.0228e-13 	0 	0 	
0.785 -1.5342e-14 	0 	0 	
0.795 7.67101e-15 	0 	0 	
0.805 -7.92674e-14 	0 	0 	
0.815 -1.32219e-24 	0 	0 	
0.825 8.9495e-14 	0 	0 	
0.835 -3.83551e-14 	0 	0 	
0.845 -4.85829e-14 	0 	0 	
0.855 1.63648e-13 	0 	0 	
0.865 1.55977e-13 	0 	0 	
0.875 3.8355e-14 	0 	0 	
0.885 -3.5798e-14 	0 	0 	
0.895 -6.64824e-14 	0 	0 	
0.905 -1.20179e-13 	0 	0 	
0.915 -1.22736e-13 	0 	0 	
0.925 1.2785e-14 	0 	0 	
0.935 -4.0912e-14 	0 	0 	
0.945 3.5798e-14 	0 	0 	
0.955 -1.0228e-14 	0 	0 	
0.965 -2.55685e-15 	0 	0 	
0.975 -2.557e-14 	0 	0 	
0.985 -1.07394e-13 	0 	0 	
0.995 1.91775e-13 	0 	0 	
