0.005 4.90141e-14 	0 	0 	
0.015 8.22944e-14 	0 	0 	
0.025 9.99288e-14 	0 	0 	
0.035 9.11115e-14 	0 	0 	
0.045 3.52689e-14 	0 	0 	
0.055 -2.35127e-14 	0 	0 	
0.065 -2.93909e-14 	0 	0 	
0.075 -2.05736e-14 	0 	0 	
0.085 -2.64518e-14 	0 	0 	
0.095 -1.17563e-14 	0 	0 	
0.105 1.17563e-14 	0 	0 	
0.115 1.17563e-14 	0 	0 	
0.125 -1.17563e-14 	0 	0 	
0.135 -5.58426e-14 	0 	0 	
0.145 -9.99289e-14 	-4.89456e-30 	0 	
0.155 -1.26381e-13 	0 	0 	
0.165 -1.58711e-13 	0 	0 	
0.175 -2.05736e-13 	0 	0 	
0.185 -2.14554e-13 	0 	0 	
0.195 -1.6165e-13 	0 	0 	
0.205 -1.02868e-13 	0 	0 	
0.215 -5.58426e-14 	0 	0 	
0.225 2.05735e-14 	0 	0 	
0.235 8.22942e-14 	9.78913e-30 	0 	
0.245 7.93552e-14 	0 	0 	
0.255 6.17208e-14 	0 	0 	
0.265 5.29035e-14 	0 	0 	
0.275 3.82081e-14 	0 	0 	
0.285 2.05736e-14 	0 	0 	
0.295 5.87818e-15 	0 	0 	
0.305 0 	0 	0 	
0.315 -2.93907e-15 	0 	0 	
0.325 2.9391e-15 	0 	0 	
0.335 8.81725e-15 	0 	0 	
0.345 -2.9391e-15 	0 	0 	
0.355 -1.17563e-14 	0 	0 	
0.365 -2.64518e-14 	0 	0 	
0.375 0.00335287 	0 	0 	
0.385 1.84319 	0 	0 	
0.395 9.66438 	0 	0 	
0.405 24.8655 	0 	0 	
0.415 44.5421 	0 	0 	
0.425 65.7695 	0 	0 	
0.435 86.813 	0 	0 	
0.445 105.618 	0 	0 	
0.455 119.751 	0 	0 	
0.465 127.53 	0 	0 	
0.475 129.9 	0 	0 	
0.485 129.984 	0 	0 	
0.495 129.83 	0 	0 	
0.505 130.03 	0 	0 	
0.515 130.517 	0 	0 	
0.525 130.768 	0 	0 	
0.535 130.66 	0 	0 	
0.545 130.26 	0 	0 	
0.555 129.571 	0 	0 	
0.565 129.163 	0 	0 	
0.575 129.517 	-3.39513e-30 	0 	
0.585 129.716 	-2.3701e-30 	0 	
0.595 129.479 	0 	0 	
0.605 127.098 	0 	0 	
0.615 112.726 	0 	0 	
0.625 76.4759 	0 	0 	
0.635 31.8708 	0 	0 	
0.645 5.72475 	0 	0 	
0.655 1.54302e-14 	0 	0 	
0.665 2.20431e-15 	0 	0 	
0.675 1.10216e-14 	0 	0 	
0.685 3.30647e-14 	0 	0 	
0.695 4.1882e-14 	0 	0 	
0.705 5.29036e-14 	0 	0 	
0.715 5.51079e-14 	0 	0 	
0.725 6.61295e-14 	0 	0 	
0.735 8.81728e-14 	0 	0 	
0.745 6.61295e-14 	0 	0 	
0.755 2.42475e-14 	0 	0 	
0.765 4.40863e-15 	0 	0 	
0.775 -4.40862e-15 	0 	0 	
0.785 -1.98388e-14 	0 	0 	
0.795 -2.42475e-14 	0 	0 	
0.805 -6.61295e-15 	0 	0 	
0.815 5.43802e-26 	-7.34184e-30 	0 	
0.825 -1.32259e-14 	0 	0 	
0.835 -3.08604e-14 	0 	0 	
0.845 -3.74734e-14 	0 	0 	
0.855 -2.86561e-14 	0 	0 	
0.865 -1.54302e-14 	0 	0 	
0.875 -1.54302e-14 	0 	0 	
0.885 -4.84949e-14 	0 	0 	
0.895 -8.37639e-14 	0 	0 	
0.905 -6.61294e-14 	0 	0 	
0.915 -3.08604e-14 	0 	0 	
0.925 -2.64518e-14 	0 	0 	
0.935 -1.10216e-14 	0 	0 	
0.945 4.18819e-14 	0 	0 	
0.955 9.69897e-14 	0 	0 	
0.965 1.10216e-13 	0 	0 	
0.975 8.59684e-14 	0 	0 	
0.985 6.61294e-14 	0 	0 	
0.995 4.89007e-14 	0 	0 	
