0.005 4.90141e-14 	0 	0 	
0.015 8.22944e-14 	0 	0 	
0.025 9.99288e-14 	0 	0 	
0.035 1.14624e-13 	0 	0 	
0.045 1.17563e-13 	0 	0 	
0.055 8.52336e-14 	0 	0 	
0.065 3.82081e-14 	0 	0 	
0.075 -1.46954e-14 	0 	0 	
0.085 -5.87817e-14 	0 	0 	
0.095 -6.46599e-14 	0 	0 	
0.105 -9.40507e-14 	0 	0 	
0.115 -1.44015e-13 	0 	0 	
0.125 -1.5871e-13 	0 	0 	
0.135 -1.88101e-13 	0 	0 	
0.145 -2.35127e-13 	-3.26305e-31 	0 	
0.155 -2.32188e-13 	0 	0 	
0.165 -1.91041e-13 	0 	0 	
0.175 -1.49893e-13 	0 	0 	
0.185 -9.11117e-14 	0 	0 	
0.195 -1.17563e-14 	0 	0 	
0.205 3.233e-14 	0 	0 	
0.215 3.233e-14 	0 	0 	
0.225 4.11472e-14 	0 	0 	
0.235 4.99645e-14 	6.52609e-31 	0 	
0.245 5.87817e-14 	0 	0 	
0.255 1.02868e-13 	0 	0 	
0.265 1.32259e-13 	0 	0 	
0.275 9.69898e-14 	0 	0 	
0.285 6.7599e-14 	0 	0 	
0.295 7.05381e-14 	0 	0 	
0.305 6.46599e-14 	0 	0 	
0.315 5.58427e-14 	0 	0 	
0.325 4.70254e-14 	0 	0 	
0.335 2.93909e-14 	0 	0 	
0.345 -1.76345e-14 	0 	0 	
0.355 -9.11117e-14 	0 	0 	
0.365 -1.23442e-13 	0 	0 	
0.375 -1.02868e-13 	0 	0 	
0.385 0.55921 	0 	0 	
0.395 4.87374 	0 	0 	
0.405 16.5047 	0 	0 	
0.415 34.2777 	0 	0 	
0.425 54.688 	0 	0 	
0.435 75.5036 	0 	0 	
0.445 95.1087 	0 	0 	
0.455 111.679 	0 	0 	
0.465 123.446 	0 	0 	
0.475 129.425 	0 	0 	
0.485 130.72 	0 	0 	
0.495 130.254 	0 	0 	
0.505 129.908 	0 	0 	
0.515 130.038 	0 	0 	
0.525 130.38 	0 	0 	
0.535 130.449 	0 	0 	
0.545 130.098 	0 	0 	
0.555 129.669 	0 	0 	
0.565 129.693 	0 	0 	
0.575 130.177 	-1.69289e-30 	0 	
0.585 130.386 	-5.0735e-31 	0 	
0.595 128.348 	0 	0 	
0.605 116.343 	0 	0 	
0.615 83.0741 	0 	0 	
0.625 37.462 	0 	0 	
0.635 7.52805 	0 	0 	
0.645 -5.29047e-14 	0 	0 	
0.655 -1.54302e-14 	0 	0 	
0.665 -4.40863e-14 	0 	0 	
0.675 -5.06992e-14 	0 	0 	
0.685 1.54302e-14 	0 	0 	
0.695 6.39251e-14 	0 	0 	
0.705 4.1882e-14 	0 	0 	
0.715 3.08604e-14 	0 	0 	
0.725 7.71511e-14 	0 	0 	
0.735 1.03603e-13 	0 	0 	
0.745 7.93555e-14 	0 	0 	
0.755 4.40863e-14 	0 	0 	
0.765 1.76345e-14 	0 	0 	
0.775 2.2043e-15 	0 	0 	
0.785 -2.64518e-14 	0 	0 	
0.795 -5.51079e-14 	0 	0 	
0.805 -4.40863e-14 	0 	0 	
0.815 -1.32259e-14 	-4.89455e-31 	0 	
0.825 6.61295e-15 	0 	0 	
0.835 2.42475e-14 	0 	0 	
0.845 4.1882e-14 	0 	0 	
0.855 5.29036e-14 	0 	0 	
0.865 5.06993e-14 	0 	0 	
0.875 1.10216e-14 	0 	0 	
0.885 -5.06992e-14 	0 	0 	
0.895 -7.49467e-14 	0 	0 	
0.905 -4.1882e-14 	0 	0 	
0.915 6.61295e-15 	0 	0 	
0.925 2.42475e-14 	0 	0 	
0.935 2.20432e-14 	0 	0 	
0.945 1.76345e-14 	0 	0 	
0.955 1.54302e-14 	0 	0 	
0.965 4.18819e-14 	0 	0 	
0.975 6.61294e-14 	0 	0 	
0.985 4.1882e-14 	0 	0 	
0.995 8.81725e-15 	0 	0 	
