0.005 11.8512 	0 	0 	
0.015 1.5429 	0 	0 	
0.025 1.84197 	0 	0 	
0.035 13.0232 	0 	0 	
0.045 -3.69687 	0 	0 	
0.055 -5.30951 	0 	0 	
0.065 -0.324715 	0 	0 	
0.075 3.4264 	0 	0 	
0.085 -13.1942 	0 	0 	
0.095 0.466 	0 	0 	
0.105 3.55945 	0 	0 	
0.115 -6.29755 	0 	0 	
0.125 3.5106 	0 	0 	
0.135 1.77785 	0 	0 	
0.145 -14.6739 	0 	0 	
0.155 -11.1499 	0 	0 	
0.165 -6.10055 	0 	0 	
0.175 23.0199 	0 	0 	
0.185 -9.01355 	0 	0 	
0.195 -4.97125 	0 	0 	
0.205 7.22575 	0 	0 	
0.215 1.88265 	0 	0 	
0.225 1.31925 	0 	0 	
0.235 14.623 	0 	0 	
0.245 7.97175 	0 	0 	
0.255 -4.97115 	0 	0 	
0.265 9.0959 	0 	0 	
0.275 0.56505 	0 	0 	
0.285 -0.082455 	0 	0 	
0.295 0.366 	0 	0 	
0.305 -2.71855 	0 	0 	
0.315 5.9043 	0 	0 	
0.325 -3.6306 	0 	0 	
0.335 -3.3485 	0 	0 	
0.345 9.803 	0 	0 	
0.355 7.5895 	0 	0 	
0.365 -5.481 	0 	0 	
0.375 -4.93947 	0 	0 	
0.385 4.42205 	0 	0 	
0.395 6.11905 	0 	0 	
0.405 13.4754 	0 	0 	
0.415 -8.25575 	0 	0 	
0.425 -2.63799e+08 	0 	0 	
0.435 -1.76666e+22 	0 	0 	
0.445 -3.71003e+30 	0 	0 	
0.455 -5.31401e+35 	0 	0 	
0.465 -4.92995e+44 	0 	0 	
0.475 -1.2368e+56 	0 	0 	
0.485 -3.65509e+67 	0 	0 	
0.495 -4.55993e+72 	0 	0 	
0.505 -1.64674e+75 	0 	0 	
0.515 5.36944e+77 	0 	0 	
0.525 1.67671e+66 	0 	0 	
0.535 3.56722e+56 	0 	0 	
0.545 6.23734e+44 	0 	0 	
0.555 6.39463e+33 	0 	0 	
0.565 1.24302e+23 	0 	0 	
0.575 7.16591e+09 	0 	0 	
0.585 0.1575 	0 	0 	
0.595 2.55685 	0 	0 	
0.605 -10.5698 	0 	0 	
0.615 6.49865 	0 	0 	
0.625 5.88395 	0 	0 	
0.635 -11.0905 	0 	0 	
0.645 -16.2827 	0 	0 	
0.655 4.78353 	0 	0 	
0.665 0.0902 	0 	0 	
0.675 8.3041 	0 	0 	
0.685 -4.51426 	0 	0 	
0.695 -9.0562 	0 	0 	
0.705 -4.46065 	0 	0 	
0.715 0.68395 	0 	0 	
0.725 9.6692 	0 	0 	
0.735 35.9185 	0 	0 	
0.745 9.5435 	0 	0 	
0.755 -6.8759 	0 	0 	
0.765 0.73235 	0 	0 	
0.775 9.93323 	0 	0 	
0.785 -10.7346 	0 	0 	
0.795 -16.9996 	0 	0 	
0.805 51.4516 	0 	0 	
0.815 5.65975 	0 	0 	
0.825 9.41275 	0 	0 	
0.835 1.7854 	0 	0 	
0.845 -13.2341 	0 	0 	
0.855 -51.3345 	0 	0 	
0.865 -7.79865 	0 	0 	
0.875 3.9699 	0 	0 	
0.885 -10.6783 	0 	0 	
0.895 -7.07919 	0 	0 	
0.905 -22.9596 	0 	0 	
0.915 -6.8076 	0 	0 	
0.925 -44.5114 	0 	0 	
0.935 15.4613 	0 	0 	
0.945 -19.006 	0 	0 	
0.955 -8.3595 	0 	0 	
0.965 -8.08661 	0 	0 	
0.975 2.9196 	0 	0 	
0.985 6.44362 	0 	0 	
0.995 -8.824 	0 	0 	
