0.005 266.208 302935
0.015 272.101 301267
0.025 273.643 308125
0.035 265.281 295598
0.045 274.171 308954
0.055 274.721 310618
0.065 256.269 301737
0.075 270.079 297923
0.085 266.278 287360
0.095 269.46 304870
0.105 268.697 290979
0.115 275.052 315645
0.125 267.475 291249
0.135 272.914 304929
0.145 268.799 303916
0.155 264.763 289604
0.165 275.311 319886
0.175 260.759 303229
0.185 263.196 306007
0.195 271.283 301838
0.205 268.547 301501
0.215 267.959 304058
0.225 268.848 297295
0.235 269.568 308721
0.245 261.758 285130
0.255 270.424 303315
0.265 272.964 308473
0.275 269.733 304642
0.285 272.025 305832
0.295 264.34 291762
0.305 266.99 297492
0.315 264.425 303038
0.325 266.804 294204
0.335 270.475 303587
0.345 262.926 291993
0.355 260.609 291104
0.365 261.599 290179
0.375 274.624 309964
0.385 270.705 298902
0.395 262.595 308050
0.405 266.049 302910
0.415 268.467 293694
0.425 0.001 2876.99
0.435 0.001 2876.99
0.445 0.001 2876.99
0.455 3762.38 3.76417e+06
0.465 0.001 2876.99
0.475 0.001 2876.99
0.485 0.001 2876.99
0.495 0.001 2876.99
0.505 8762.38 8.76273e+06
0.515 0.001 2876.99
0.525 0.001 2876.99
0.535 0.001 2876.99
0.545 0.001 2876.99
0.555 0.001 2876.99
0.565 0.001 2876.99
0.575 0.001 2876.99
0.585 271.565 102042
0.595 274.119 104178
0.605 272.945 104694
0.615 269.931 97863.8
0.625 272.859 101241
0.635 251.751 100103
0.645 263.629 97219.9
0.655 272.324 100826
0.665 267.143 98140.2
0.675 253.928 99483.3
0.685 274.796 103631
0.695 271.13 101397
0.705 272.444 100823
0.715 270.228 101741
0.725 269.986 103974
0.735 231.973 95054.8
0.745 266.272 98074.5
0.755 270.738 102222
0.765 270.537 99338.5
0.775 269.835 97188.7
0.785 238.94 100037
0.795 231.045 99060.4
0.805 242.443 103852
0.815 273.371 102549
0.825 264.2 101692
0.835 271.227 100199
0.845 265.491 100416
0.855 242.209 94641.5
0.865 271.144 103078
0.875 266.27 100441
0.885 272.047 100703
0.895 266.7 98426.7
0.905 251.088 99512.7
0.915 267.233 101650
0.925 238.983 96830.3
0.935 270.713 102220
0.945 263.918 100777
0.955 267.567 99187.2
0.965 270.71 98945.4
0.975 273.795 102503
0.985 275.191 104439
0.995 269.993 97955.7
