0.005 0 	0 	0 	
0.015 0 	0 	0 	
0.025 1.46954e-14 	0 	0 	
0.035 3.82081e-14 	0 	0 	
0.045 3.5269e-14 	0 	0 	
0.055 2.05736e-14 	0 	0 	
0.065 5.87818e-15 	0 	0 	
0.075 -3.5269e-14 	0 	0 	
0.085 -6.46599e-14 	0 	0 	
0.095 -3.82081e-14 	0 	0 	
0.105 1.17563e-14 	0 	0 	
0.115 5.58426e-14 	0 	0 	
0.125 7.05381e-14 	0 	0 	
0.135 2.35127e-14 	0 	0 	
0.145 -4.70254e-14 	-3.26305e-31 	0 	
0.155 -8.22944e-14 	0 	0 	
0.165 -7.93554e-14 	0 	0 	
0.175 -5.87818e-14 	0 	0 	
0.185 -2.64518e-14 	0 	0 	
0.195 3.52689e-14 	0 	0 	
0.205 7.05378e-14 	0 	0 	
0.215 3.52689e-14 	0 	0 	
0.225 2.93908e-15 	0 	0 	
0.235 0 	6.52609e-31 	0 	
0.245 -2.93907e-15 	0 	0 	
0.255 2.49999e-20 	0 	0 	
0.265 8.81727e-15 	0 	0 	
0.275 5.87818e-15 	0 	0 	
0.285 0 	0 	0 	
0.295 0 	0 	0 	
0.305 0 	0 	0 	
0.315 -2.93907e-15 	0 	0 	
0.325 8.81727e-15 	0 	0 	
0.335 3.23299e-14 	0 	0 	
0.345 8.81725e-15 	0 	0 	
0.355 -2.93909e-14 	0 	0 	
0.365 -1.76345e-14 	0 	0 	
0.375 -8.81725e-15 	0 	0 	
0.385 -2.35127e-14 	0 	0 	
0.395 -2.05736e-14 	0 	0 	
0.405 5.87817e-15 	0 	0 	
0.415 2.64518e-14 	0 	0 	
0.425 1.76345e-14 	0 	0 	
0.435 2.93908e-15 	0 	0 	
0.445 0 	0 	0 	
0.455 1.46954e-14 	0 	0 	
0.465 3.90365 	0 	0 	
0.475 22.2946 	0 	0 	
0.485 59.7763 	0 	0 	
0.495 102.829 	0 	0 	
0.505 126.86 	0 	0 	
0.515 113.653 	0 	0 	
0.525 68.4879 	0 	0 	
0.535 23.1363 	0 	0 	
0.545 2.88513 	0 	0 	
0.555 0 	0 	0 	
0.565 -6.61295e-15 	0 	0 	
0.575 -6.61295e-15 	0 	0 	
0.585 6.61295e-15 	0 	0 	
0.595 6.61295e-15 	0 	0 	
0.605 -8.81725e-15 	0 	0 	
0.615 -2.64517e-14 	0 	0 	
0.625 -3.08604e-14 	0 	0 	
0.635 -8.81725e-15 	0 	0 	
0.645 2.20431e-14 	0 	0 	
0.655 1.54302e-14 	0 	0 	
0.665 -4.18819e-14 	0 	0 	
0.675 -6.61293e-14 	0 	0 	
0.685 -1.54301e-14 	0 	0 	
0.695 4.40863e-14 	0 	0 	
0.705 6.61294e-14 	0 	0 	
0.715 4.1882e-14 	0 	0 	
0.725 8.81725e-15 	0 	0 	
0.735 0 	0 	0 	
0.745 0 	0 	0 	
0.755 0 	0 	0 	
0.765 -6.61295e-15 	0 	0 	
0.775 -1.54302e-14 	0 	0 	
0.785 -2.20432e-14 	0 	0 	
0.795 -3.08604e-14 	0 	0 	
0.805 -1.98389e-14 	0 	0 	
0.815 1.10215e-14 	-4.89455e-31 	0 	
0.825 2.86561e-14 	0 	0 	
0.835 2.20432e-14 	0 	0 	
0.845 6.61295e-15 	0 	0 	
0.855 -4.40862e-15 	0 	0 	
0.865 -1.10216e-14 	0 	0 	
0.875 -5.00016e-21 	0 	0 	
0.885 1.98388e-14 	0 	0 	
0.895 1.76345e-14 	0 	0 	
0.905 1.08657e-25 	0 	0 	
0.915 -1.98388e-14 	0 	0 	
0.925 -2.64518e-14 	0 	0 	
0.935 -4.40863e-15 	0 	0 	
0.945 2.20431e-14 	0 	0 	
0.955 2.42475e-14 	0 	0 	
0.965 8.81725e-15 	0 	0 	
0.975 0 	0 	0 	
0.985 0 	0 	0 	
0.995 0 	0 	0 	
