0.005 6.37094e-14 	0 	0 	
0.015 1.2638e-13 	0 	0 	
0.025 1.49893e-13 	0 	0 	
0.035 1.41076e-13 	0 	0 	
0.045 1.20503e-13 	0 	0 	
0.055 7.34772e-14 	0 	0 	
0.065 2.05736e-14 	0 	0 	
0.075 -1.17563e-14 	0 	0 	
0.085 -4.40863e-14 	0 	0 	
0.095 -9.40508e-14 	0 	0 	
0.105 -1.58711e-13 	0 	0 	
0.115 -1.9398e-13 	0 	0 	
0.125 -1.91041e-13 	0 	0 	
0.135 -2.02797e-13 	0 	0 	
0.145 -2.29249e-13 	-1.79468e-30 	0 	
0.155 -2.38066e-13 	1.63152e-30 	0 	
0.165 -2.32188e-13 	0 	0 	
0.175 -2.29249e-13 	0 	0 	
0.185 -2.11614e-13 	0 	0 	
0.195 -1.46954e-13 	0 	0 	
0.205 -4.70254e-14 	0 	0 	
0.215 3.23299e-14 	0 	0 	
0.225 8.52334e-14 	1.63152e-31 	0 	
0.235 1.14624e-13 	1.20733e-29 	0 	
0.245 1.02868e-13 	6.52609e-31 	0 	
0.255 9.69899e-14 	0 	0 	
0.265 1.02868e-13 	0 	0 	
0.275 9.69898e-14 	0 	0 	
0.285 1.17563e-13 	0 	0 	
0.295 1.46954e-13 	0 	0 	
0.305 1.26381e-13 	0 	0 	
0.315 7.34771e-14 	0 	0 	
0.325 2.64518e-14 	0 	0 	
0.335 -1.46954e-14 	0 	0 	
0.345 0.321067 	0 	0 	
0.355 3.31138 	0 	0 	
0.365 11.9321 	0 	0 	
0.375 25.5566 	0 	0 	
0.385 41.5487 	0 	0 	
0.395 58.379 	0 	0 	
0.405 75.2422 	0 	0 	
0.415 91.3538 	0 	0 	
0.425 105.737 	0 	0 	
0.435 117.23 	0 	0 	
0.445 124.947 	0 	0 	
0.455 128.744 	0 	0 	
0.465 129.738 	0 	0 	
0.475 129.862 	0 	0 	
0.485 130.078 	0 	0 	
0.495 130.288 	0 	0 	
0.505 130.319 	0 	0 	
0.515 130.144 	0 	0 	
0.525 129.936 	0 	0 	
0.535 129.9 	0 	0 	
0.545 130.083 	0 	0 	
0.555 130.384 	0 	0 	
0.565 130.615 	0 	0 	
0.575 130.645 	-2.65163e-30 	0 	
0.585 130.426 	-1.85816e-30 	0 	
0.595 129.99 	0 	0 	
0.605 129.58 	0 	0 	
0.615 129.413 	0 	0 	
0.625 129.445 	0 	0 	
0.635 129.313 	0 	0 	
0.645 127.333 	0 	0 	
0.655 116.332 	0 	0 	
0.665 85.2996 	0 	0 	
0.675 40.6575 	0 	0 	
0.685 9.10332 	0 	0 	
0.695 0.178397 	0 	0 	
0.705 8.81725e-15 	0 	0 	
0.715 4.40862e-15 	0 	0 	
0.725 2.64518e-14 	0 	0 	
0.735 5.95165e-14 	0 	0 	
0.745 6.61294e-14 	0 	0 	
0.755 4.40863e-14 	0 	0 	
0.765 3.08604e-14 	0 	0 	
0.775 3.74733e-14 	0 	0 	
0.785 3.96777e-14 	0 	0 	
0.795 1.98388e-14 	0 	0 	
0.805 4.40862e-15 	0 	0 	
0.815 8.81725e-15 	-9.54439e-30 	0 	
0.825 8.81726e-15 	0 	0 	
0.835 2.20432e-15 	0 	0 	
0.845 -6.61295e-15 	0 	0 	
0.855 -2.20431e-14 	0 	0 	
0.865 -3.30647e-14 	0 	0 	
0.875 -5.29035e-14 	0 	0 	
0.885 -7.71509e-14 	0 	0 	
0.895 -6.61294e-14 	0 	0 	
0.905 -2.42475e-14 	0 	0 	
0.915 6.61293e-15 	0 	0 	
0.925 4.40862e-15 	0 	0 	
0.935 8.81726e-15 	0 	0 	
0.945 5.29036e-14 	0 	0 	
0.955 1.05807e-13 	0 	0 	
0.965 1.27851e-13 	0 	0 	
0.975 1.19033e-13 	0 	0 	
0.985 9.91942e-14 	0 	0 	
0.995 6.7281e-14 	0 	0 	
