0.005 -0.000872785 	0 	0 	
0.015 -0.00025132 	0 	0 	
0.025 0.00090615 	0 	0 	
0.035 0.00074619 	0 	0 	
0.045 0.00254481 	0 	0 	
0.055 -0.0007396 	0 	0 	
0.065 0.00046552 	0 	0 	
0.075 0.0002347 	0 	0 	
0.085 0.000928641 	0 	0 	
0.095 0.000195321 	0 	0 	
0.105 -0.000796485 	0 	0 	
0.115 0.000175825 	0 	0 	
0.125 -0.0019726 	0 	0 	
0.135 -0.0003107 	0 	0 	
0.145 0.000120435 	0 	0 	
0.155 0.000609995 	0 	0 	
0.165 0.000135275 	0 	0 	
0.175 0.00022605 	0 	0 	
0.185 -0.00033405 	0 	0 	
0.195 0.00142987 	0 	0 	
0.205 0.00189677 	0 	0 	
0.215 -0.001876 	0 	0 	
0.225 -0.00025283 	0 	0 	
0.235 0.00090085 	0 	0 	
0.245 -0.00014975 	0 	0 	
0.255 -0.00030097 	0 	0 	
0.265 0.000402265 	0 	0 	
0.275 0.00026134 	0 	0 	
0.285 -0.000244295 	0 	0 	
0.295 -0.00100589 	0 	0 	
0.305 0.00141654 	0 	0 	
0.315 -0.0012118 	0 	0 	
0.325 -0.00027885 	0 	0 	
0.335 -0.000589 	0 	0 	
0.345 0.0002892 	0 	0 	
0.355 -0.00012075 	0 	0 	
0.365 6.34e-05 	0 	0 	
0.375 0.00049285 	0 	0 	
0.385 -0.0013497 	0 	0 	
0.395 0.000276806 	0 	0 	
0.405 -0.00022439 	0 	0 	
0.415 0.0031994 	0 	0 	
0.425 -0.000720265 	0 	0 	
0.435 -0.0001895 	0 	0 	
0.445 -4.08121e+07 	0 	0 	
0.455 -4.28282e+13 	0 	0 	
0.465 -1.29143e+22 	0 	0 	
0.475 -2.76914e+34 	0 	0 	
0.485 -3.16827e+43 	0 	0 	
0.495 -1.84388e+53 	0 	0 	
0.505 5.74342e+55 	0 	0 	
0.515 9.06022e+53 	0 	0 	
0.525 1.72706e+44 	0 	0 	
0.535 1.90371e+33 	0 	0 	
0.545 1.55947e+22 	0 	0 	
0.555 1.79473e+09 	0 	0 	
0.565 0.0014468 	0 	0 	
0.575 -0.00159136 	0 	0 	
0.585 -0.000857095 	0 	0 	
0.595 -0.000288845 	0 	0 	
0.605 -0.000657335 	0 	0 	
0.615 0.002032 	0 	0 	
0.625 -0.000376405 	0 	0 	
0.635 -0.00114427 	0 	0 	
0.645 -0.00164926 	0 	0 	
0.655 0.00122811 	0 	0 	
0.665 0.00110225 	0 	0 	
0.675 0.00134685 	0 	0 	
0.685 -0.00015264 	0 	0 	
0.695 0.0006097 	0 	0 	
0.705 -0.00026087 	0 	0 	
0.715 0.00152105 	0 	0 	
0.725 0.00163481 	0 	0 	
0.735 -0.00023913 	0 	0 	
0.745 -0.00220685 	0 	0 	
0.755 0.0029173 	0 	0 	
0.765 -0.00214363 	0 	0 	
0.775 7.95e-06 	0 	0 	
0.785 -0.00062025 	0 	0 	
0.795 -5.745e-05 	0 	0 	
0.805 -0.00028915 	0 	0 	
0.815 0.00041455 	0 	0 	
0.825 -0.0012747 	0 	0 	
0.835 0.000233 	0 	0 	
0.845 -0.00149362 	0 	0 	
0.855 0.00169932 	0 	0 	
0.865 -0.0004212 	0 	0 	
0.875 0.00086295 	0 	0 	
0.885 0.00081795 	0 	0 	
0.895 0.00153145 	0 	0 	
0.905 -0.0005924 	0 	0 	
0.915 0.00142682 	0 	0 	
0.925 -0.00046945 	0 	0 	
0.935 -0.000729965 	0 	0 	
0.945 -0.00019795 	0 	0 	
0.955 -0.000798626 	0 	0 	
0.965 -0.00023076 	0 	0 	
0.975 -0.0005348 	0 	0 	
0.985 -0.0003336 	0 	0 	
0.995 -6.79e-06 	0 	0 	
