0.005 0 	0 	0 	
0.015 0 	0 	0 	
0.025 0 	0 	0 	
0.035 0 	0 	0 	
0.045 8.81725e-15 	0 	0 	
0.055 2.35127e-14 	0 	0 	
0.065 1.76345e-14 	0 	0 	
0.075 -1.76345e-14 	0 	0 	
0.085 -3.52691e-14 	0 	0 	
0.095 -1.17564e-14 	0 	0 	
0.105 2.93908e-15 	0 	0 	
0.115 1.17563e-14 	0 	0 	
0.125 2.93909e-14 	0 	0 	
0.135 2.05736e-14 	0 	0 	
0.145 -1.46954e-14 	-3.26305e-31 	0 	
0.155 -3.82081e-14 	0 	0 	
0.165 -3.233e-14 	0 	0 	
0.175 -2.35127e-14 	0 	0 	
0.185 -8.81728e-15 	0 	0 	
0.195 2.35127e-14 	0 	0 	
0.205 3.233e-14 	0 	0 	
0.215 1.17564e-14 	0 	0 	
0.225 -2.93907e-15 	0 	0 	
0.235 -5.87815e-15 	6.52609e-31 	0 	
0.245 -5.87815e-15 	0 	0 	
0.255 2.49999e-20 	0 	0 	
0.265 8.81727e-15 	0 	0 	
0.275 5.87818e-15 	0 	0 	
0.285 0 	0 	0 	
0.295 0 	0 	0 	
0.305 0 	0 	0 	
0.315 -2.93907e-15 	0 	0 	
0.325 2.9391e-15 	0 	0 	
0.335 8.81725e-15 	0 	0 	
0.345 -2.9391e-15 	0 	0 	
0.355 -5.87818e-15 	0 	0 	
0.365 0 	0 	0 	
0.375 0 	0 	0 	
0.385 -5.87817e-15 	0 	0 	
0.395 -1.46954e-14 	0 	0 	
0.405 -2.93908e-15 	0 	0 	
0.415 1.46954e-14 	0 	0 	
0.425 8.81725e-15 	0 	0 	
0.435 0 	0 	0 	
0.445 0 	0 	0 	
0.455 0 	0 	0 	
0.465 0 	0 	0 	
0.475 3.84015 	0 	0 	
0.485 26.1959 	0 	0 	
0.495 69.8735 	0 	0 	
0.505 90.1999 	0 	0 	
0.515 57.1344 	0 	0 	
0.525 15.2248 	0 	0 	
0.535 0.772493 	0 	0 	
0.545 0 	0 	0 	
0.555 0 	0 	0 	
0.565 -6.61295e-15 	0 	0 	
0.575 -6.61295e-15 	0 	0 	
0.585 6.61295e-15 	0 	0 	
0.595 6.61295e-15 	0 	0 	
0.605 -6.61295e-15 	0 	0 	
0.615 -6.61295e-15 	0 	0 	
0.625 5.87348e-30 	0 	0 	
0.635 -6.61295e-15 	0 	0 	
0.645 -1.63577e-25 	0 	0 	
0.655 8.81728e-15 	0 	0 	
0.665 -2.20431e-14 	0 	0 	
0.675 -4.40863e-14 	0 	0 	
0.685 -8.81725e-15 	0 	0 	
0.695 3.30647e-14 	0 	0 	
0.705 3.5269e-14 	0 	0 	
0.715 1.54302e-14 	0 	0 	
0.725 2.20432e-15 	0 	0 	
0.735 0 	0 	0 	
0.745 0 	0 	0 	
0.755 0 	0 	0 	
0.765 0 	0 	0 	
0.775 -4.40862e-15 	0 	0 	
0.785 -1.76345e-14 	0 	0 	
0.795 -2.64518e-14 	0 	0 	
0.805 -1.32259e-14 	0 	0 	
0.815 1.76345e-14 	-4.89455e-31 	0 	
0.825 3.08604e-14 	0 	0 	
0.835 1.32259e-14 	0 	0 	
0.845 0 	0 	0 	
0.855 -6.61295e-15 	0 	0 	
0.865 -1.32259e-14 	0 	0 	
0.875 -2.20433e-15 	0 	0 	
0.885 1.10216e-14 	0 	0 	
0.895 8.81726e-15 	0 	0 	
0.905 2.20432e-15 	0 	0 	
0.915 -8.81725e-15 	0 	0 	
0.925 -1.76345e-14 	0 	0 	
0.935 -2.2043e-15 	0 	0 	
0.945 1.54302e-14 	0 	0 	
0.955 1.10216e-14 	0 	0 	
0.965 2.20432e-15 	0 	0 	
0.975 0 	0 	0 	
0.985 0 	0 	0 	
0.995 0 	0 	0 	
