0.005 3.23299e-14 	0 	0 	
0.015 1.9398e-13 	0 	0 	
0.025 -1.05072e-13 	0 	0 	
0.035 8.08249e-15 	0 	0 	
0.045 5.65775e-14 	0 	0 	
0.055 2.42475e-14 	0 	0 	
0.065 -4.8495e-14 	0 	0 	
0.075 1.13155e-13 	0 	0 	
0.085 4.8495e-14 	0 	0 	
0.095 8.89075e-14 	0 	0 	
0.105 8.89072e-14 	0 	0 	
0.115 6.46601e-14 	0 	0 	
0.125 -2.42475e-14 	0 	0 	
0.135 1.05072e-13 	0 	0 	
0.145 8.89075e-14 	0 	0 	
0.155 1.05073e-13 	0 	0 	
0.165 7.27425e-14 	0 	0 	
0.175 -8.89076e-14 	0 	0 	
0.185 4.84951e-14 	0 	0 	
0.195 -1.76288e-24 	0 	0 	
0.205 4.8218e-20 	0 	0 	
0.215 1.45484e-13 	0 	0 	
0.225 -5.65775e-14 	0 	0 	
0.235 -4.04126e-14 	0 	0 	
0.245 -3.23296e-14 	0 	0 	
0.255 1.21237e-13 	0 	0 	
0.265 9.66667e-12 	0 	0 	
0.275 1.71326e-09 	0 	0 	
0.285 1.4343e-07 	0 	0 	
0.295 6.74725e-06 	0 	0 	
0.305 0.00018377 	0 	0 	
0.315 0.00311718 	9.1978e-30 	0 	
0.325 0.0335706 	0 	0 	
0.335 0.237735 	-8.53118e-30 	0 	
0.345 1.13238 	0 	0 	
0.355 3.78127 	-4.4269e-30 	0 	
0.365 9.37195 	1.56767e-29 	0 	
0.375 18.4549 	0 	0 	
0.385 30.7446 	3.68865e-30 	0 	
0.395 45.5042 	0 	0 	
0.405 61.9169 	3.25022e-30 	0 	
0.415 79.18 	0 	0 	
0.425 96.3522 	-7.55516e-31 	0 	
0.435 111.949 	0 	0 	
0.445 123.529 	-2.97411e-30 	0 	
0.455 129.011 	-2.86462e-30 	0 	
0.465 130.141 	-3.38134e-30 	0 	
0.475 130.188 	0 	0 	
0.485 130.167 	0 	0 	
0.495 130.15 	-1.35346e-30 	0 	
0.505 130.137 	-1.1e-30 	0 	
0.515 130.125 	0 	0 	
0.525 130.116 	0 	0 	
0.535 130.108 	0 	0 	
0.545 130.101 	0 	0 	
0.555 130.093 	0 	0 	
0.565 130.087 	0 	0 	
0.575 130.08 	0 	0 	
0.585 130.073 	0 	0 	
0.595 130.065 	0 	0 	
0.605 130.056 	0 	0 	
0.615 130.036 	0 	0 	
0.625 129.93 	0 	0 	
0.635 129.175 	0 	0 	
0.645 124.532 	0 	0 	
0.655 101.626 	0 	0 	
0.665 39.426 	0 	0 	
0.675 3.52479 	0 	0 	
0.685 0.160763 	0 	0 	
0.695 0.00542989 	0 	0 	
0.705 0.000132377 	0 	0 	
0.715 2.04952e-06 	0 	0 	
0.725 1.91668e-08 	0 	0 	
0.735 8.88123e-11 	0 	0 	
0.745 3.63712e-13 	0 	0 	
0.755 -2.42476e-14 	0 	0 	
0.765 1.81856e-14 	0 	0 	
0.775 4.2433e-14 	0 	0 	
0.785 4.24332e-14 	0 	0 	
0.795 -6.062e-15 	0 	0 	
0.805 6.06187e-14 	0 	0 	
0.815 -3.03094e-14 	0 	0 	
0.825 3.63712e-14 	0 	0 	
0.835 -1.21238e-14 	0 	0 	
0.845 7.88042e-14 	0 	0 	
0.855 6.06188e-14 	0 	0 	
0.865 6.06188e-14 	0 	0 	
0.875 -2.42475e-14 	0 	0 	
0.885 -9.699e-14 	0 	0 	
0.895 1.81856e-14 	0 	0 	
0.905 -1.21238e-14 	0 	0 	
0.915 -2.42475e-14 	0 	0 	
0.925 -6.06186e-15 	0 	0 	
0.935 -8.48661e-14 	0 	0 	
0.945 -1.09114e-13 	0 	0 	
0.955 2.42476e-14 	0 	0 	
0.965 3.63713e-14 	0 	0 	
0.975 4.2433e-14 	0 	0 	
0.985 -2.42475e-14 	0 	0 	
0.995 -1.21238e-14 	0 	0 	
