0.005 3.52689e-14 	0 	0 	
0.015 3.5269e-14 	0 	0 	
0.025 -3.17421e-13 	0 	0 	
0.035 -3.5269e-14 	0 	0 	
0.045 -3.5269e-14 	0 	0 	
0.055 7.0538e-14 	0 	0 	
0.065 1.41076e-13 	0 	0 	
0.075 -1.05807e-13 	0 	0 	
0.085 7.0538e-14 	0 	0 	
0.095 -1.05807e-13 	0 	0 	
0.105 -7.05381e-14 	0 	0 	
0.115 3.94957e-24 	0 	0 	
0.125 -3.5269e-14 	-3.30382e-30 	0 	
0.135 3.5269e-14 	0 	0 	
0.145 7.0538e-14 	0 	0 	
0.155 2.11614e-13 	0 	0 	
0.165 -3.5269e-14 	0 	0 	
0.175 -2.46883e-13 	-7.09712e-30 	0 	
0.185 3.5269e-14 	-6.60765e-30 	0 	
0.195 7.05379e-14 	0 	0 	
0.205 1.05807e-13 	0 	0 	
0.215 1.76345e-13 	0 	0 	
0.225 1.31519e-24 	0 	0 	
0.235 3.52689e-14 	0 	0 	
0.245 1.05807e-13 	0 	0 	
0.255 1.31447e-24 	-7.58658e-30 	0 	
0.265 7.0538e-14 	-7.09712e-30 	0 	
0.275 -1.41076e-13 	0 	0 	
0.285 -1.76345e-13 	0 	0 	
0.295 -1.05807e-13 	0 	0 	
0.305 2.11614e-13 	0 	0 	
0.315 -1.05807e-13 	0 	0 	
0.325 -7.05379e-14 	0 	0 	
0.335 -2.11614e-13 	0 	0 	
0.345 3.17422e-11 	0 	0 	
0.355 1.01581e-07 	-6.60765e-30 	0 	
0.365 2.91652e-05 	0 	0 	
0.375 0.0021172 	0 	0 	
0.385 0.0557768 	0 	0 	
0.395 0.640176 	0 	0 	
0.405 3.66271 	0 	0 	
0.415 12.1537 	6.83489e-30 	0 	
0.425 27.5417 	3.17881e-30 	0 	
0.435 48.7335 	-8.47594e-31 	0 	
0.445 73.4727 	1.22085e-30 	0 	
0.455 98.8182 	-3.31077e-31 	0 	
0.465 119.643 	-5.32494e-31 	0 	
0.475 129.087 	0 	0 	
0.485 130.197 	-3.6922e-31 	0 	
0.495 130.173 	1.8468e-31 	0 	
0.505 130.135 	-1.84789e-31 	0 	
0.515 130.081 	0 	0 	
0.525 -46560.3 	0 	0 	
0.535 -8.44412e+10 	0 	0 	
0.545 -2.29006e+26 	0 	0 	
0.555 5.09655e+22 	0 	0 	
0.565 -5.29905e+22 	0 	0 	
0.575 2.77494e+20 	0 	0 	
0.585 1.41256e+18 	0 	0 	
0.595 7.24513e+15 	0 	0 	
0.605 1.44218e+10 	0 	0 	
0.615 3166.79 	0 	0 	
0.625 0.0469836 	0 	0 	
0.635 0.000384637 	0 	0 	
0.645 9.23488e-07 	0 	0 	
0.655 2.09974e-10 	0 	0 	
0.665 9.81474e-25 	0 	0 	
0.675 7.93552e-14 	0 	0 	
0.685 -2.9444e-24 	0 	0 	
0.695 -1.05807e-13 	0 	0 	
0.705 7.93555e-14 	0 	0 	
0.715 2.64518e-14 	0 	0 	
0.725 -5.29035e-14 	0 	0 	
0.735 -1.05807e-13 	0 	0 	
0.745 2.64517e-14 	0 	0 	
0.755 5.29035e-14 	0 	0 	
0.765 5.29035e-14 	0 	0 	
0.775 -7.93555e-14 	0 	0 	
0.785 -5.29037e-14 	0 	0 	
0.795 -2.64518e-14 	0 	0 	
0.805 -2.64517e-14 	0 	0 	
0.815 1.5871e-13 	0 	0 	
0.825 7.93552e-14 	0 	0 	
0.835 7.93553e-14 	0 	0 	
0.845 -2.6452e-14 	0 	0 	
0.855 -5.29035e-14 	0 	0 	
0.865 -5.29035e-14 	0 	0 	
0.875 5.29035e-14 	0 	0 	
0.885 -2.6452e-14 	0 	0 	
0.895 1.85162e-13 	0 	0 	
0.905 1.32259e-13 	0 	0 	
0.915 5.29035e-14 	0 	0 	
0.925 -5.29035e-14 	0 	0 	
0.935 2.93377e-24 	0 	0 	
0.945 -1.85162e-13 	0 	0 	
0.955 1.32259e-13 	0 	0 	
0.965 -1.58711e-13 	0 	0 	
0.975 -2.64518e-14 	0 	0 	
0.985 -7.93555e-14 	0 	0 	
0.995 -7.93553e-14 	0 	0 	
