0.005 1.05807e-13 	0 	0 	
0.015 -3.5269e-14 	0 	0 	
0.025 1.05807e-13 	0 	0 	
0.035 7.0538e-14 	0 	0 	
0.045 1.41076e-13 	0 	0 	
0.055 -3.94792e-24 	0 	0 	
0.065 -1.41077e-13 	0 	0 	
0.075 2.63192e-24 	0 	0 	
0.085 2.63254e-24 	0 	0 	
0.095 -3.5269e-14 	0 	0 	
0.105 -1.76345e-13 	0 	0 	
0.115 1.05807e-13 	0 	0 	
0.125 7.05379e-14 	-9.78913e-31 	0 	
0.135 3.5269e-14 	0 	0 	
0.145 -2.11614e-13 	0 	0 	
0.155 3.5269e-14 	0 	0 	
0.165 2.46883e-13 	0 	0 	
0.175 -1.76345e-13 	-2.44729e-30 	0 	
0.185 -7.0538e-14 	-2.20255e-30 	0 	
0.195 1.41076e-13 	0 	0 	
0.205 -1.41076e-13 	0 	0 	
0.215 3.5269e-14 	0 	0 	
0.225 7.0538e-14 	0 	0 	
0.235 1.41076e-13 	0 	0 	
0.245 -3.5269e-14 	0 	0 	
0.255 -1.41076e-13 	-2.692e-30 	0 	
0.265 -3.5269e-14 	-2.692e-30 	0 	
0.275 -3.94344e-24 	0 	0 	
0.285 7.05381e-14 	0 	0 	
0.295 -3.93986e-24 	0 	0 	
0.305 7.0538e-14 	0 	0 	
0.315 -1.05807e-13 	0 	0 	
0.325 3.5269e-14 	0 	0 	
0.335 7.05379e-14 	0 	0 	
0.345 -1.05807e-13 	0 	0 	
0.355 -1.05807e-13 	-2.44729e-30 	0 	
0.365 -1.05807e-13 	0 	0 	
0.375 1.05807e-13 	0 	0 	
0.385 -1.05807e-13 	0 	0 	
0.395 -2.46883e-13 	0 	0 	
0.405 -7.0538e-14 	0 	0 	
0.415 -2.11614e-13 	2.692e-30 	0 	
0.425 1.05807e-13 	2.20255e-30 	0 	
0.435 1.05807e-13 	-1.10128e-30 	0 	
0.445 7.0538e-14 	1.95783e-30 	0 	
0.455 0.164818 	0 	0 	
0.465 5.45385 	0 	0 	
0.475 32.8881 	0 	0 	
0.485 86.1131 	1.57723e-31 	0 	
0.495 127.883 	7.3227e-31 	0 	
0.505 130.181 	-1.88662e-31 	0 	
0.515 129.91 	0 	0 	
0.525 128.286 	0 	0 	
0.535 68.699 	0 	0 	
0.545 1.68651 	0 	0 	
0.555 -9.29863e-15 	0 	0 	
0.565 1.32259e-13 	0 	0 	
0.575 5.29037e-14 	0 	0 	
0.585 5.29035e-14 	0 	0 	
0.595 -5.29035e-14 	0 	0 	
0.605 -2.64517e-14 	0 	0 	
0.615 1.05807e-13 	0 	0 	
0.625 5.29037e-14 	0 	0 	
0.635 -7.93553e-14 	0 	0 	
0.645 1.05807e-13 	0 	0 	
0.655 -1.5871e-13 	0 	0 	
0.665 2.64515e-14 	0 	0 	
0.675 1.05807e-13 	0 	0 	
0.685 1.05807e-13 	0 	0 	
0.695 7.93555e-14 	0 	0 	
0.705 -2.93908e-24 	0 	0 	
0.715 7.93553e-14 	0 	0 	
0.725 1.32258e-13 	0 	0 	
0.735 -5.29037e-14 	0 	0 	
0.745 -1.05807e-13 	0 	0 	
0.755 1.05807e-13 	0 	0 	
0.765 2.11614e-13 	0 	0 	
0.775 -7.93555e-14 	0 	0 	
0.785 1.5871e-13 	0 	0 	
0.795 5.29037e-14 	0 	0 	
0.805 5.29035e-14 	0 	0 	
0.815 -7.93553e-14 	0 	0 	
0.825 -7.93552e-14 	0 	0 	
0.835 -2.64518e-14 	0 	0 	
0.845 -7.93555e-14 	0 	0 	
0.855 7.93555e-14 	0 	0 	
0.865 1.58711e-13 	0 	0 	
0.875 -9.77908e-25 	0 	0 	
0.885 7.93553e-14 	0 	0 	
0.895 -2.64515e-14 	0 	0 	
0.905 5.29035e-14 	0 	0 	
0.915 -5.29035e-14 	0 	0 	
0.925 -5.29035e-14 	0 	0 	
0.935 1.32259e-13 	0 	0 	
0.945 -5.29035e-14 	0 	0 	
0.955 1.95233e-24 	0 	0 	
0.965 -1.05807e-13 	0 	0 	
0.975 -1.05807e-13 	0 	0 	
0.985 -5.29035e-14 	0 	0 	
0.995 9.76181e-25 	0 	0 	
