0.005 -9.699e-14 	0 	0 	
0.015 8.08245e-15 	0 	0 	
0.025 4.04126e-14 	0 	0 	
0.035 -4.04125e-14 	0 	0 	
0.045 -5.65775e-14 	0 	0 	
0.055 1.77815e-13 	0 	0 	
0.065 8.89075e-14 	0 	0 	
0.075 8.8907e-14 	0 	0 	
0.085 8.0825e-14 	0 	0 	
0.095 1.45485e-13 	0 	0 	
0.105 3.23301e-14 	0 	0 	
0.115 7.27425e-14 	0 	0 	
0.125 -4.8495e-14 	0 	0 	
0.135 3.233e-14 	0 	0 	
0.145 7.27425e-14 	0 	0 	
0.155 1.77196e-21 	0 	0 	
0.165 -7.27425e-14 	0 	0 	
0.175 -8.08246e-15 	0 	0 	
0.185 -8.0825e-14 	0 	0 	
0.195 1.61649e-14 	0 	0 	
0.205 -5.65774e-14 	0 	0 	
0.215 9.69895e-14 	0 	0 	
0.225 -1.6165e-14 	0 	0 	
0.235 1.6165e-14 	0 	0 	
0.245 3.233e-14 	0 	0 	
0.255 -5.65775e-14 	0 	0 	
0.265 -1.6165e-14 	0 	0 	
0.275 -1.45485e-13 	0 	0 	
0.285 -1.45485e-13 	0 	0 	
0.295 3.233e-14 	0 	0 	
0.305 -8.08249e-15 	0 	0 	
0.315 -1.13155e-13 	5.83269e-30 	0 	
0.325 4.63127e-12 	0 	0 	
0.335 5.18955e-09 	-5.83269e-30 	0 	
0.345 1.16687e-06 	0 	0 	
0.355 9.58212e-05 	-3.14068e-30 	0 	
0.365 0.00335007 	1.16655e-29 	0 	
0.375 0.0581566 	0 	0 	
0.385 0.534116 	0 	0 	
0.395 2.80633 	0 	0 	
0.405 9.24622 	4.60767e-31 	0 	
0.415 21.4712 	0 	0 	
0.425 39.1653 	-1.38703e-30 	0 	
0.435 60.7807 	0 	0 	
0.445 84.3064 	-2.03402e-30 	0 	
0.455 106.874 	-2.51623e-30 	0 	
0.465 123.429 	-1.98253e-30 	0 	
0.475 129.615 	0 	0 	
0.485 130.204 	0 	0 	
0.495 130.179 	-7.61894e-31 	0 	
0.505 130.154 	-6.77615e-31 	0 	
0.515 130.135 	0 	0 	
0.525 130.119 	0 	0 	
0.535 130.105 	0 	0 	
0.545 130.091 	0 	0 	
0.555 130.077 	0 	0 	
0.565 130.06 	0 	0 	
0.575 129.999 	0 	0 	
0.585 129.453 	0 	0 	
0.595 125.098 	0 	0 	
0.605 101.196 	0 	0 	
0.615 35.5451 	0 	0 	
0.625 2.48862 	0 	0 	
0.635 0.0769507 	0 	0 	
0.645 0.00140197 	0 	0 	
0.655 1.21824e-05 	0 	0 	
0.665 4.19559e-08 	0 	0 	
0.675 3.09094e-11 	0 	0 	
0.685 -4.24331e-14 	0 	0 	
0.695 -3.03093e-14 	0 	0 	
0.705 -1.81856e-14 	0 	0 	
0.715 5.45569e-14 	0 	0 	
0.725 3.03094e-14 	0 	0 	
0.735 -1.11171e-19 	0 	0 	
0.745 3.03094e-14 	0 	0 	
0.755 8.48663e-14 	0 	0 	
0.765 6.06189e-14 	0 	0 	
0.775 3.03095e-14 	0 	0 	
0.785 -4.8495e-14 	0 	0 	
0.795 4.84951e-14 	0 	0 	
0.805 8.48661e-14 	0 	0 	
0.815 1.81856e-14 	0 	0 	
0.825 3.63713e-14 	0 	0 	
0.835 -1.81856e-14 	0 	0 	
0.845 3.63713e-14 	0 	0 	
0.855 -1.81856e-14 	0 	0 	
0.865 6.66807e-14 	0 	0 	
0.875 -9.09279e-14 	0 	0 	
0.885 -1.21237e-14 	0 	0 	
0.895 3.03094e-14 	0 	0 	
0.905 -1.81856e-14 	0 	0 	
0.915 -5.45568e-14 	0 	0 	
0.925 -6.06188e-14 	0 	0 	
0.935 -8.48663e-14 	0 	0 	
0.945 -9.09279e-14 	0 	0 	
0.955 -1.45485e-13 	0 	0 	
0.965 5.45569e-14 	0 	0 	
0.975 -6.06186e-15 	0 	0 	
0.985 -2.42476e-14 	0 	0 	
0.995 4.84949e-14 	0 	0 	
