0.005 0 	0 	0 	
0.015 1.76345e-14 	0 	0 	
0.025 5.87817e-14 	0 	0 	
0.035 7.34772e-14 	0 	0 	
0.045 3.82081e-14 	0 	0 	
0.055 2.50001e-20 	0 	0 	
0.065 -2.64517e-14 	0 	0 	
0.075 -6.75989e-14 	0 	0 	
0.085 -7.05379e-14 	0 	0 	
0.095 1.24999e-19 	0 	0 	
0.105 5.58426e-14 	0 	0 	
0.115 6.17208e-14 	0 	0 	
0.125 4.11472e-14 	0 	0 	
0.135 -1.46954e-14 	0 	0 	
0.145 -7.93552e-14 	-3.26305e-31 	0 	
0.155 -1.08746e-13 	0 	0 	
0.165 -9.99288e-14 	0 	0 	
0.175 -7.34772e-14 	0 	0 	
0.185 -3.233e-14 	0 	0 	
0.195 2.93908e-14 	0 	0 	
0.205 6.46599e-14 	0 	0 	
0.215 4.40863e-14 	0 	0 	
0.225 2.93908e-14 	0 	0 	
0.235 3.82081e-14 	6.52609e-31 	0 	
0.245 2.35127e-14 	0 	0 	
0.255 2.50001e-20 	0 	0 	
0.265 -2.93908e-15 	0 	0 	
0.275 0 	0 	0 	
0.285 0 	0 	0 	
0.295 0 	0 	0 	
0.305 8.81725e-15 	0 	0 	
0.315 2.35127e-14 	0 	0 	
0.325 2.93908e-14 	0 	0 	
0.335 3.5269e-14 	0 	0 	
0.345 1.46954e-14 	0 	0 	
0.355 -3.5269e-14 	0 	0 	
0.365 -4.70254e-14 	0 	0 	
0.375 -3.233e-14 	0 	0 	
0.385 -3.23299e-14 	0 	0 	
0.395 -3.23299e-14 	0 	0 	
0.405 -8.81725e-15 	0 	0 	
0.415 2.93909e-14 	0 	0 	
0.425 3.52691e-14 	0 	0 	
0.435 1.17564e-14 	0 	0 	
0.445 0 	0 	0 	
0.455 3.75725 	0 	0 	
0.465 20.1166 	0 	0 	
0.475 51.8427 	0 	0 	
0.485 88.2777 	0 	0 	
0.495 116.804 	0 	0 	
0.505 132.313 	0 	0 	
0.515 133.849 	0 	0 	
0.525 118.43 	0 	0 	
0.535 80.5279 	0 	0 	
0.545 33.7432 	0 	0 	
0.555 6.09915 	0 	0 	
0.565 -6.61295e-15 	0 	0 	
0.575 -6.61295e-15 	0 	0 	
0.585 6.61295e-15 	0 	0 	
0.595 6.61295e-15 	0 	0 	
0.605 -1.54302e-14 	0 	0 	
0.615 -4.84949e-14 	0 	0 	
0.625 -5.95165e-14 	0 	0 	
0.635 -2.64518e-14 	0 	0 	
0.645 1.54302e-14 	0 	0 	
0.655 1.54302e-14 	0 	0 	
0.665 -3.74734e-14 	0 	0 	
0.675 -6.61296e-14 	0 	0 	
0.685 -1.3226e-14 	0 	0 	
0.695 5.51079e-14 	0 	0 	
0.705 8.59682e-14 	0 	0 	
0.715 6.83337e-14 	0 	0 	
0.725 2.42475e-14 	0 	0 	
0.735 2.20432e-15 	0 	0 	
0.745 0 	0 	0 	
0.755 -4.40862e-15 	0 	0 	
0.765 -2.20431e-14 	0 	0 	
0.775 -3.30647e-14 	0 	0 	
0.785 -2.42475e-14 	0 	0 	
0.795 -2.42475e-14 	0 	0 	
0.805 -1.76345e-14 	0 	0 	
0.815 6.61296e-15 	-4.89455e-31 	0 	
0.825 1.76345e-14 	0 	0 	
0.835 2.20432e-14 	0 	0 	
0.845 1.98389e-14 	0 	0 	
0.855 2.20433e-15 	0 	0 	
0.865 -8.81725e-15 	0 	0 	
0.875 6.61295e-15 	0 	0 	
0.885 2.86561e-14 	0 	0 	
0.895 2.42475e-14 	0 	0 	
0.905 2.20433e-15 	0 	0 	
0.915 -1.98388e-14 	0 	0 	
0.925 -2.64518e-14 	0 	0 	
0.935 -1.10216e-14 	0 	0 	
0.945 1.10216e-14 	0 	0 	
0.955 2.64518e-14 	0 	0 	
0.965 1.98388e-14 	0 	0 	
0.975 4.40863e-15 	0 	0 	
0.985 0 	0 	0 	
0.995 0 	0 	0 	
