0.005 -2.95746e-14 	0 	0 	
0.015 -7.18239e-14 	0 	0 	
0.025 -1.26748e-14 	0 	0 	
0.035 8.44987e-15 	0 	0 	
0.045 5.91491e-14 	0 	0 	
0.055 6.7599e-14 	0 	0 	
0.065 1.68997e-14 	-1.64172e-30 	0 	
0.075 2.95746e-14 	0 	0 	
0.085 -1.90122e-13 	0 	0 	
0.095 -8.02738e-14 	0 	0 	
0.105 -4.64743e-14 	0 	0 	
0.115 -8.44988e-15 	0 	0 	
0.125 6.33741e-14 	0 	0 	
0.135 -1.35198e-13 	0 	0 	
0.145 -5.06993e-14 	0 	0 	
0.155 -2.53496e-14 	0 	0 	
0.165 3.37995e-14 	0 	0 	
0.175 4.22494e-15 	0 	0 	
0.185 -4.64743e-14 	0 	0 	
0.195 5.06993e-14 	0 	0 	
0.205 5.49242e-14 	0 	0 	
0.215 1.01399e-13 	0 	0 	
0.225 4.22494e-15 	0 	0 	
0.235 8.44988e-15 	0 	0 	
0.245 1.09848e-13 	0 	0 	
0.255 -1.18298e-13 	0 	0 	
0.265 -7.18239e-14 	0 	0 	
0.275 3.37995e-14 	0 	0 	
0.285 -5.91491e-14 	0 	0 	
0.295 2.53496e-14 	0 	0 	
0.305 2.95746e-14 	0 	0 	
0.315 5.49242e-14 	0 	0 	
0.325 7.60489e-14 	0 	0 	
0.335 8.81451e-25 	0 	0 	
0.345 8.02738e-14 	0 	0 	
0.355 4.22494e-15 	0 	0 	
0.365 4.22494e-15 	0 	0 	
0.375 -6.33741e-14 	0 	0 	
0.385 1.26748e-14 	0 	0 	
0.395 6.7599e-14 	0 	0 	
0.405 -5.49242e-14 	0 	0 	
0.415 -1.05623e-13 	0 	0 	
0.425 2.95746e-14 	0 	0 	
0.435 -9.71736e-14 	0 	0 	
0.445 -1.52098e-13 	0 	0 	
0.455 0.00944733 	0 	0 	
0.465 1.50994 	0 	0 	
0.475 18.1579 	0 	0 	
0.485 66.5851 	0 	0 	
0.495 122.398 	0 	0 	
0.505 130.189 	0 	0 	
0.515 129.485 	0 	0 	
0.525 113.025 	0 	0 	
0.535 31.0266 	0 	0 	
0.545 0.230444 	0 	0 	
0.555 1.58434e-14 	0 	0 	
0.565 2.85183e-14 	0 	0 	
0.575 1.65275e-25 	0 	0 	
0.585 -4.75304e-14 	0 	0 	
0.595 4.43621e-14 	0 	0 	
0.605 3.48559e-14 	0 	0 	
0.615 -1.26749e-14 	0 	0 	
0.625 -6.3374e-15 	0 	0 	
0.635 -4.11929e-14 	0 	0 	
0.645 -3.1687e-14 	0 	0 	
0.655 -1.2675e-14 	0 	0 	
0.665 6.97115e-14 	0 	0 	
0.675 -1.14074e-13 	0 	0 	
0.685 8.55549e-14 	0 	0 	
0.695 1.26752e-14 	0 	0 	
0.705 9.50602e-15 	0 	0 	
0.715 -9.5061e-14 	0 	0 	
0.725 -7.6049e-14 	7.03593e-31 	0 	
0.735 -1.58436e-14 	0 	0 	
0.745 -7.92176e-14 	0 	0 	
0.755 -5.38681e-14 	0 	0 	
0.765 -2.85186e-14 	-4.22156e-30 	0 	
0.775 -5.06995e-14 	0 	0 	
0.785 -7.28802e-14 	0 	0 	
0.795 7.28803e-14 	0 	0 	
0.805 -2.53499e-14 	0 	0 	
0.815 7.288e-14 	2.11078e-30 	0 	
0.825 -6.3374e-15 	7.03594e-31 	0 	
0.835 -6.02051e-14 	0 	0 	
0.845 -1.52097e-13 	0 	0 	
0.855 2.85182e-14 	0 	0 	
0.865 -7.28802e-14 	0 	0 	
0.875 -1.1018e-25 	0 	0 	
0.885 9.18923e-14 	0 	0 	
0.895 4.75305e-14 	0 	0 	
0.905 2.85181e-14 	0 	0 	
0.915 -4.11929e-14 	0 	0 	
0.925 7.92177e-14 	0 	0 	
0.935 2.2181e-14 	0 	0 	
0.945 1.90119e-14 	0 	0 	
0.955 -1.10905e-13 	0 	0 	
0.965 -4.75305e-14 	0 	0 	
0.975 -9.50609e-14 	0 	0 	
0.985 3.80242e-14 	0 	0 	
0.995 1.10905e-13 	0 	0 	
