0.005 1.00868e-14 	0 	0 	
0.015 -1.37855e-13 	0 	0 	
0.025 1.68115e-14 	0 	0 	
0.035 1.30458e-13 	0 	0 	
0.045 -9.95246e-14 	0 	0 	
0.055 2.69011e-15 	0 	0 	
0.065 -1.53322e-13 	0 	0 	
0.075 -4.70726e-14 	0 	0 	
0.085 -7.19536e-14 	0 	0 	
0.095 -2.15188e-14 	0 	0 	
0.105 8.06958e-15 	0 	0 	
0.115 -9.34724e-14 	9.56561e-30 	0 	
0.125 -6.72463e-14 	0 	0 	
0.135 -5.58144e-14 	0 	0 	
0.145 -1.32475e-13 	0 	0 	
0.155 1.17525e-24 	0 	0 	
0.165 -2.08463e-14 	0 	0 	
0.175 7.73328e-14 	0 	0 	
0.185 -7.06082e-14 	0 	0 	
0.195 -1.62736e-13 	0 	0 	
0.205 -6.59013e-14 	0 	0 	
0.215 -1.32475e-13 	0 	0 	
0.225 -1.10956e-13 	0 	0 	
0.235 -5.31248e-14 	0 	0 	
0.245 -1.47942e-14 	0 	0 	
0.255 2.2124e-13 	0 	0 	
0.265 2.48812e-14 	0 	0 	
0.275 -1.00869e-14 	0 	0 	
0.285 -3.49681e-14 	0 	0 	
0.295 -2.3506e-24 	0 	0 	
0.305 3.74212e-11 	0 	0 	
0.315 1.43187e-08 	0 	0 	
0.325 1.84745e-06 	0 	0 	
0.335 0.000108848 	0 	0 	
0.345 0.00303117 	0 	0 	
0.355 0.0446389 	0 	0 	
0.365 0.384314 	0 	0 	
0.375 1.98102 	0 	0 	
0.385 6.59841 	0 	0 	
0.395 15.7127 	0 	0 	
0.405 29.4499 	0 	0 	
0.415 46.8118 	0 	0 	
0.425 66.5122 	0 	0 	
0.435 87.1548 	0 	0 	
0.445 106.77 	0 	0 	
0.455 121.94 	0 	0 	
0.465 129.009 	0 	0 	
0.475 130.173 	0 	0 	
0.485 130.186 	0 	0 	
0.495 130.162 	0 	0 	
0.505 130.143 	0 	0 	
0.515 130.129 	0 	0 	
0.525 130.116 	0 	0 	
0.535 130.106 	0 	0 	
0.545 130.096 	0 	0 	
0.555 130.086 	0 	0 	
0.565 130.076 	0 	0 	
0.575 130.064 	0 	0 	
0.585 130.047 	0 	0 	
0.595 129.997 	0 	0 	
0.605 128.838 	0 	0 	
0.615 118.723 	0 	0 	
0.625 98.7097 	0 	0 	
0.635 40.6314 	0 	0 	
0.645 3.12044 	0 	0 	
0.655 0.105276 	0 	0 	
0.665 0.00221987 	0 	0 	
0.675 2.54094e-05 	0 	0 	
0.685 1.47525e-07 	0 	0 	
0.695 3.04165e-10 	0 	0 	
0.705 -6.55651e-15 	0 	0 	
0.715 -7.4139e-14 	0 	0 	
0.725 -3.53043e-14 	0 	0 	
0.735 -8.06975e-15 	0 	0 	
0.745 7.26262e-14 	0 	0 	
0.755 -1.10956e-14 	0 	0 	
0.765 -5.44698e-14 	0 	0 	
0.775 -1.00869e-13 	0 	0 	
0.785 -1.0087e-15 	0 	0 	
0.795 2.42086e-14 	0 	0 	
0.805 8.17042e-14 	0 	0 	
0.815 8.72517e-14 	0 	0 	
0.825 -2.26954e-14 	0 	0 	
0.835 -6.05204e-15 	0 	0 	
0.845 4.23651e-14 	0 	0 	
0.855 -3.0261e-15 	0 	0 	
0.865 1.00869e-13 	0 	0 	
0.875 3.78259e-14 	0 	0 	
0.885 1.09443e-13 	0 	0 	
0.895 7.56519e-15 	0 	0 	
0.905 -7.4139e-14 	0 	0 	
0.915 3.53076e-15 	0 	0 	
0.925 -1.51306e-14 	0 	0 	
0.935 -2.0176e-15 	0 	0 	
0.945 -2.72349e-14 	0 	0 	
0.955 -1.12974e-13 	0 	0 	
0.965 7.26264e-14 	0 	0 	
0.975 5.79997e-14 	0 	0 	
0.985 -8.06981e-15 	0 	0 	
0.995 6.50607e-14 	0 	0 	
