0.005 3.5269e-14 	0 	0 	
0.015 1.05807e-13 	0 	0 	
0.025 7.0538e-14 	0 	0 	
0.035 -7.05379e-14 	0 	0 	
0.045 7.05385e-14 	0 	0 	
0.055 3.52689e-14 	0 	0 	
0.065 -7.05381e-14 	0 	0 	
0.075 -7.0538e-14 	0 	0 	
0.085 1.76345e-13 	0 	0 	
0.095 -3.5269e-14 	0 	0 	
0.105 7.0538e-14 	0 	0 	
0.115 -3.5269e-14 	0 	0 	
0.125 7.0538e-14 	-1.10128e-30 	0 	
0.135 -1.05807e-13 	0 	0 	
0.145 1.05807e-13 	0 	0 	
0.155 1.05807e-13 	0 	0 	
0.165 1.05807e-13 	0 	0 	
0.175 -3.5269e-14 	-2.692e-30 	0 	
0.185 -3.52691e-14 	-2.44729e-30 	0 	
0.195 7.0538e-14 	0 	0 	
0.205 -3.52691e-14 	0 	0 	
0.215 7.05381e-14 	0 	0 	
0.225 -3.5269e-14 	0 	0 	
0.235 -1.26218e-29 	0 	0 	
0.245 -3.5269e-14 	0 	0 	
0.255 1.05807e-13 	-2.93674e-30 	0 	
0.265 3.52691e-14 	-2.93674e-30 	0 	
0.275 -1.76345e-13 	0 	0 	
0.285 7.0538e-14 	0 	0 	
0.295 3.5269e-14 	0 	0 	
0.305 2.11614e-13 	0 	0 	
0.315 -2.11614e-13 	0 	0 	
0.325 1.05807e-13 	0 	0 	
0.335 -7.0538e-14 	0 	0 	
0.345 -1.05807e-13 	0 	0 	
0.355 3.5269e-14 	-2.692e-30 	0 	
0.365 -1.05807e-13 	0 	0 	
0.375 1.05807e-13 	0 	0 	
0.385 -1.05807e-13 	0 	0 	
0.395 -1.05807e-13 	0 	0 	
0.405 3.52689e-14 	0 	0 	
0.415 3.5269e-14 	2.93674e-30 	0 	
0.425 -7.0538e-14 	2.692e-30 	0 	
0.435 7.05385e-14 	-1.22364e-30 	0 	
0.445 0.00777597 	2.20258e-30 	0 	
0.455 0.930337 	0 	0 	
0.465 11.6198 	0 	0 	
0.475 45.6158 	0 	0 	
0.485 97.4903 	1.63893e-31 	0 	
0.495 129.09 	7.36198e-31 	0 	
0.505 130.183 	-1.87252e-31 	0 	
0.515 130.092 	0 	0 	
0.525 126.796 	0 	0 	
0.535 89.5686 	0 	0 	
0.545 15.1255 	0 	0 	
0.555 0.0627697 	0 	0 	
0.565 -5.29035e-14 	0 	0 	
0.575 -1.05807e-13 	0 	0 	
0.585 -7.93555e-14 	0 	0 	
0.595 9.81449e-25 	0 	0 	
0.605 5.29035e-14 	0 	0 	
0.615 -7.93555e-14 	0 	0 	
0.625 1.05807e-13 	0 	0 	
0.635 -7.93552e-14 	0 	0 	
0.645 1.32259e-13 	0 	0 	
0.655 -1.05807e-13 	0 	0 	
0.665 1.96294e-24 	0 	0 	
0.675 7.93553e-14 	0 	0 	
0.685 5.29035e-14 	0 	0 	
0.695 1.58711e-13 	0 	0 	
0.705 5.29037e-14 	0 	0 	
0.715 -1.95939e-24 	0 	0 	
0.725 -2.6452e-14 	0 	0 	
0.735 -2.6452e-14 	0 	0 	
0.745 5.29035e-14 	0 	0 	
0.755 4.89848e-24 	0 	0 	
0.765 -5.29035e-14 	0 	0 	
0.775 -5.29036e-14 	0 	0 	
0.785 2.6452e-14 	0 	0 	
0.795 -5.29035e-14 	0 	0 	
0.805 -2.64518e-14 	0 	0 	
0.815 -2.64515e-14 	0 	0 	
0.825 7.93552e-14 	0 	0 	
0.835 7.93555e-14 	0 	0 	
0.845 -5.29037e-14 	0 	0 	
0.855 5.29035e-14 	0 	0 	
0.865 5.29035e-14 	0 	0 	
0.875 -1.05807e-13 	0 	0 	
0.885 -2.64517e-14 	0 	0 	
0.895 -5.29037e-14 	0 	0 	
0.905 5.29037e-14 	0 	0 	
0.915 7.93553e-14 	0 	0 	
0.925 -1.32259e-13 	0 	0 	
0.935 -2.64517e-14 	0 	0 	
0.945 -1.32259e-13 	0 	0 	
0.955 9.76172e-25 	0 	0 	
0.965 -2.64515e-14 	0 	0 	
0.975 -1.32259e-13 	0 	0 	
0.985 -5.29036e-14 	0 	0 	
0.995 9.7616e-25 	0 	0 	
