0.005 4.90141e-14 	0 	0 	
0.015 8.22944e-14 	0 	0 	
0.025 9.69898e-14 	0 	0 	
0.035 8.81726e-14 	0 	0 	
0.045 4.70254e-14 	0 	0 	
0.055 -2.93905e-15 	0 	0 	
0.065 -2.05736e-14 	0 	0 	
0.075 -1.76345e-14 	0 	0 	
0.085 -1.46954e-14 	0 	0 	
0.095 2.93907e-15 	0 	0 	
0.105 1.17564e-14 	0 	0 	
0.115 -1.46954e-14 	0 	0 	
0.125 -5.29035e-14 	0 	0 	
0.135 -1.02868e-13 	0 	0 	
0.145 -1.6165e-13 	-3.26305e-31 	0 	
0.155 -1.73407e-13 	0 	0 	
0.165 -1.41076e-13 	0 	0 	
0.175 -1.14624e-13 	0 	0 	
0.185 -6.75989e-14 	0 	0 	
0.195 1.76345e-14 	0 	0 	
0.205 6.46599e-14 	0 	0 	
0.215 6.17208e-14 	0 	0 	
0.225 7.93552e-14 	0 	0 	
0.235 9.40505e-14 	6.52609e-31 	0 	
0.245 5.87816e-14 	0 	0 	
0.255 1.76345e-14 	0 	0 	
0.265 5.87815e-15 	0 	0 	
0.275 2.93908e-15 	0 	0 	
0.285 1.17563e-14 	0 	0 	
0.295 4.11472e-14 	0 	0 	
0.305 6.17208e-14 	0 	0 	
0.315 6.17208e-14 	0 	0 	
0.325 5.29035e-14 	0 	0 	
0.335 5.87818e-15 	0 	0 	
0.345 -6.17208e-14 	0 	0 	
0.355 -7.34772e-14 	0 	0 	
0.365 -5.29036e-14 	0 	0 	
0.375 -4.40863e-14 	0 	0 	
0.385 -4.11472e-14 	0 	0 	
0.395 -4.70254e-14 	0 	0 	
0.405 -4.11472e-14 	0 	0 	
0.415 -3.64161e-25 	0 	0 	
0.425 1.56272 	0 	0 	
0.435 10.1367 	0 	0 	
0.445 29.6766 	0 	0 	
0.455 56.5157 	0 	0 	
0.465 84.1896 	0 	0 	
0.475 107.749 	0 	0 	
0.485 123.493 	0 	0 	
0.495 130.289 	0 	0 	
0.505 130.898 	0 	0 	
0.515 129.882 	0 	0 	
0.525 130.033 	0 	0 	
0.535 131.378 	0 	0 	
0.545 131.638 	0 	0 	
0.555 124.425 	0 	0 	
0.565 97.6857 	0 	0 	
0.575 51.9883 	-4.25631e-31 	0 	
0.585 14.1255 	0 	0 	
0.595 0.938128 	0 	0 	
0.605 -4.40863e-14 	0 	0 	
0.615 -6.83337e-14 	0 	0 	
0.625 -7.49467e-14 	0 	0 	
0.635 -7.05381e-14 	0 	0 	
0.645 -3.96777e-14 	0 	0 	
0.655 -4.40863e-15 	0 	0 	
0.665 -2.42474e-14 	0 	0 	
0.675 -3.96777e-14 	0 	0 	
0.685 2.20431e-14 	0 	0 	
0.695 6.83337e-14 	0 	0 	
0.705 4.1882e-14 	0 	0 	
0.715 2.20432e-14 	0 	0 	
0.725 5.29035e-14 	0 	0 	
0.735 8.59681e-14 	0 	0 	
0.745 6.61294e-14 	0 	0 	
0.755 1.76345e-14 	0 	0 	
0.765 -1.98388e-14 	0 	0 	
0.775 -3.5269e-14 	0 	0 	
0.785 -3.30647e-14 	0 	0 	
0.795 -4.1882e-14 	0 	0 	
0.805 -3.96777e-14 	0 	0 	
0.815 -1.32259e-14 	-4.89455e-31 	0 	
0.825 0 	0 	0 	
0.835 1.37334e-30 	0 	0 	
0.845 6.61293e-15 	0 	0 	
0.855 3.5269e-14 	0 	0 	
0.865 6.17208e-14 	0 	0 	
0.875 3.96777e-14 	0 	0 	
0.885 -1.98388e-14 	0 	0 	
0.895 -4.62906e-14 	0 	0 	
0.905 -1.32259e-14 	0 	0 	
0.915 2.64518e-14 	0 	0 	
0.925 3.08604e-14 	0 	0 	
0.935 6.61296e-15 	0 	0 	
0.945 6.61295e-15 	0 	0 	
0.955 2.86561e-14 	0 	0 	
0.965 2.20432e-14 	0 	0 	
0.975 4.40863e-15 	0 	0 	
0.985 0 	0 	0 	
0.995 0 	0 	0 	
