0.005 -0.33895 	0 	0 	
0.015 0.62028 	0 	0 	
0.025 0.820465 	0 	0 	
0.035 0.654415 	0 	0 	
0.045 -0.962885 	0 	0 	
0.055 0.718645 	0 	0 	
0.065 -0.636695 	0 	0 	
0.075 1.0032 	0 	0 	
0.085 -0.69175 	0 	0 	
0.095 0.648135 	0 	0 	
0.105 1.07374 	0 	0 	
0.115 -0.49425 	0 	0 	
0.125 1.01862 	0 	0 	
0.135 -0.38052 	0 	0 	
0.145 0.14672 	0 	0 	
0.155 -1.12485 	0 	0 	
0.165 0.113775 	0 	0 	
0.175 1.31199 	0 	0 	
0.185 -0.032525 	0 	0 	
0.195 1.02437 	0 	0 	
0.205 -0.01872 	0 	0 	
0.215 -0.486565 	0 	0 	
0.225 -0.90205 	0 	0 	
0.235 1.28941 	0 	0 	
0.245 0.20455 	0 	0 	
0.255 0.20423 	0 	0 	
0.265 0.18547 	0 	0 	
0.275 -0.679841 	0 	0 	
0.285 2.25209 	0 	0 	
0.295 0.49225 	0 	0 	
0.305 -0.94175 	0 	0 	
0.315 2.14236 	0 	0 	
0.325 -0.73545 	0 	0 	
0.335 -0.4845 	0 	0 	
0.345 0.73845 	0 	0 	
0.355 0.3865 	0 	0 	
0.365 -0.52525 	0 	0 	
0.375 -0.610945 	0 	0 	
0.385 0.863385 	0 	0 	
0.395 -2.48541 	0 	0 	
0.405 1.9506 	0 	0 	
0.415 -1.67125 	0 	0 	
0.425 -218.64 	0 	0 	
0.435 -3.09089e+15 	0 	0 	
0.445 -2.3812e+27 	0 	0 	
0.455 -3.0307e+31 	0 	0 	
0.465 -1.00994e+41 	0 	0 	
0.475 -3.33529e+50 	0 	0 	
0.485 -6.5675e+61 	0 	0 	
0.495 -4.57955e+70 	0 	0 	
0.505 3.46513e+70 	0 	0 	
0.515 7.6491e+67 	0 	0 	
0.525 5.20956e+62 	0 	0 	
0.535 1.15088e+52 	0 	0 	
0.545 2.30479e+39 	0 	0 	
0.555 1.52396e+28 	0 	0 	
0.565 1.50586e+17 	0 	0 	
0.575 122700 	0 	0 	
0.585 0.321495 	0 	0 	
0.595 0.1169 	0 	0 	
0.605 -0.228225 	0 	0 	
0.615 2.0069 	0 	0 	
0.625 0.89523 	0 	0 	
0.635 -1.84831 	0 	0 	
0.645 -1.17845 	0 	0 	
0.655 -0.525225 	0 	0 	
0.665 -0.610055 	0 	0 	
0.675 1.17984 	0 	0 	
0.685 -0.75683 	0 	0 	
0.695 -0.45057 	0 	0 	
0.705 0.492455 	0 	0 	
0.715 0.633 	0 	0 	
0.725 1.16339 	0 	0 	
0.735 0.8915 	0 	0 	
0.745 1.98374 	0 	0 	
0.755 -1.7665 	0 	0 	
0.765 -0.1235 	0 	0 	
0.775 -1.20019 	0 	0 	
0.785 0.03055 	0 	0 	
0.795 -1.12813 	0 	0 	
0.805 2.1479 	0 	0 	
0.815 -0.938555 	0 	0 	
0.825 -1.12496 	0 	0 	
0.835 1.30411 	0 	0 	
0.845 0.87655 	0 	0 	
0.855 -1.80615 	0 	0 	
0.865 -0.59443 	0 	0 	
0.875 1.47592 	0 	0 	
0.885 -0.105205 	0 	0 	
0.895 -0.68061 	0 	0 	
0.905 -0.54185 	0 	0 	
0.915 -1.62112 	0 	0 	
0.925 0.6356 	0 	0 	
0.935 0.6726 	0 	0 	
0.945 -1.7 	0 	0 	
0.955 -0.25676 	0 	0 	
0.965 -0.748755 	0 	0 	
0.975 -0.15529 	0 	0 	
0.985 0.707715 	0 	0 	
0.995 -1.13009 	0 	0 	
