0.005 273.245 304777
0.015 272.652 302257
0.025 273.115 303867
0.035 272.74 302745
0.045 273.326 305111
0.055 273.331 304703
0.065 272.582 303306
0.075 273.197 304709
0.085 272.795 303626
0.095 273.961 307212
0.105 272.828 302741
0.115 273.292 304959
0.125 272.529 302005
0.135 273.396 305157
0.145 273.543 305972
0.155 272.448 302533
0.165 273.378 305022
0.175 272.854 304877
0.185 272.636 302990
0.195 272.585 301806
0.205 272.966 303930
0.215 273.06 303910
0.225 272.555 302132
0.235 273.416 305818
0.245 272.653 303143
0.255 272.642 302424
0.265 273.371 305114
0.275 273.105 303998
0.285 273.315 304636
0.295 272.68 302779
0.305 272.847 303366
0.315 273.422 305477
0.325 273.113 304264
0.335 273.183 304731
0.345 272.779 303186
0.355 272.771 303836
0.365 272.631 302985
0.375 273.403 305107
0.385 272.857 302870
0.395 273.466 305645
0.405 272.663 302521
0.415 273.211 304869
0.425 4609.32 7.56225e+06
0.435 0.001 2876.99
0.445 0.001 2876.99
0.455 0.001 2876.99
0.465 0.001 2876.99
0.475 0.001 2876.99
0.485 0.00100023 2876.99
0.495 0.001 2876.99
0.505 3762.38 3.76417e+06
0.515 10000 3.76417e+06
0.525 0.001 2876.99
0.535 0.001 2876.99
0.545 0.001 2876.99
0.555 0.001 2876.99
0.565 0.001 2876.99
0.575 2558.51 7.53816e+06
0.585 273.179 101395
0.595 273.022 101365
0.605 273.175 101381
0.615 272.379 100632
0.625 273.38 101653
0.635 272.747 101716
0.645 272.727 100858
0.655 273.453 101773
0.665 272.511 100789
0.675 272.76 101261
0.685 273.576 101979
0.695 272.841 100943
0.705 273.32 101571
0.715 272.647 100799
0.725 273.464 102115
0.735 272.153 100995
0.745 272.372 100339
0.755 272.927 101063
0.765 273.023 101237
0.775 272.68 100800
0.785 272.315 101468
0.795 272.124 101447
0.805 272.077 101117
0.815 273.778 102175
0.825 273.179 101702
0.835 273.435 101819
0.845 272.777 101402
0.855 272.298 100672
0.865 273.717 102083
0.875 272.266 101015
0.885 273.119 101375
0.895 272.18 100521
0.905 272.441 101062
0.915 272.641 100996
0.925 272.94 101605
0.935 273.169 101498
0.945 273.134 101502
0.955 272.88 101068
0.965 272.894 101154
0.975 273.04 101186
0.985 273.348 101811
0.995 272.75 100872
