0.005 1.95013e-14 	0 	0 	
0.015 -7.06085e-14 	0 	0 	
0.025 -6.72465e-14 	0 	0 	
0.035 -3.36231e-15 	0 	0 	
0.045 -4.10201e-14 	0 	0 	
0.055 1.54666e-14 	0 	0 	
0.065 -1.28441e-13 	0 	0 	
0.075 -3.0261e-14 	0 	0 	
0.085 2.89158e-14 	0 	0 	
0.095 9.41443e-15 	0 	0 	
0.105 -5.91765e-14 	0 	0 	
0.115 -4.03479e-14 	1.09655e-29 	0 	
0.125 -1.84927e-13 	0 	0 	
0.135 -1.00869e-13 	0 	0 	
0.145 -1.64081e-13 	0 	0 	
0.155 -1.56011e-13 	0 	0 	
0.165 -4.7745e-14 	0 	0 	
0.175 -1.14319e-13 	0 	0 	
0.185 -6.72463e-14 	0 	0 	
0.195 -1.24406e-13 	0 	0 	
0.205 1.61391e-14 	0 	0 	
0.215 6.72466e-16 	0 	0 	
0.225 -1.04232e-13 	0 	0 	
0.235 1.21043e-14 	0 	0 	
0.245 -7.66608e-14 	0 	0 	
0.255 -4.30376e-14 	0 	0 	
0.265 3.90027e-14 	0 	0 	
0.275 1.40881e-12 	0 	0 	
0.285 4.74084e-10 	0 	0 	
0.295 7.27945e-08 	0 	0 	
0.305 4.9945e-06 	0 	0 	
0.315 0.000173795 	0 	0 	
0.325 0.00346412 	0 	0 	
0.335 0.0421819 	0 	0 	
0.345 0.314136 	0 	0 	
0.355 1.50453 	0 	0 	
0.365 4.94405 	0 	0 	
0.375 11.8826 	0 	0 	
0.385 22.6475 	0 	0 	
0.395 36.6874 	0 	0 	
0.405 53.0922 	0 	0 	
0.415 70.9093 	0 	0 	
0.425 89.1641 	0 	0 	
0.435 106.473 	0 	0 	
0.445 120.426 	0 	0 	
0.455 128.114 	0 	0 	
0.465 130.07 	0 	0 	
0.475 130.192 	0 	0 	
0.485 130.169 	0 	0 	
0.495 130.151 	0 	0 	
0.505 130.136 	0 	0 	
0.515 130.125 	0 	0 	
0.525 130.115 	0 	0 	
0.535 130.106 	0 	0 	
0.545 130.098 	0 	0 	
0.555 130.09 	0 	0 	
0.565 130.081 	0 	0 	
0.575 130.072 	0 	0 	
0.585 130.06 	0 	0 	
0.595 130.044 	0 	0 	
0.605 130.02 	0 	0 	
0.615 129.882 	0 	0 	
0.625 129.491 	0 	0 	
0.635 135.313 	0 	0 	
0.645 140.95 	0 	0 	
0.655 52.8475 	0 	0 	
0.665 4.68538 	0 	0 	
0.675 0.177564 	0 	0 	
0.685 0.00497613 	0 	0 	
0.695 9.30913e-05 	0 	0 	
0.705 9.74552e-07 	0 	0 	
0.715 4.88413e-09 	0 	0 	
0.725 1.17513e-11 	0 	0 	
0.735 1.46261e-14 	0 	0 	
0.745 -1.36678e-13 	0 	0 	
0.755 -7.56519e-14 	0 	0 	
0.765 -2.92521e-14 	0 	0 	
0.775 8.82606e-14 	0 	0 	
0.785 -2.72349e-14 	0 	0 	
0.795 -7.56523e-15 	0 	0 	
0.805 -5.04347e-14 	0 	0 	
0.815 -9.68346e-14 	0 	0 	
0.825 -4.03478e-14 	0 	0 	
0.835 5.64867e-14 	0 	0 	
0.845 8.8146e-25 	0 	0 	
0.855 2.21911e-14 	0 	0 	
0.865 -8.06946e-15 	0 	0 	
0.875 5.04347e-14 	0 	0 	
0.885 1.00869e-13 	0 	0 	
0.895 -2.37043e-14 	0 	0 	
0.905 -8.06955e-15 	0 	0 	
0.915 -3.53045e-15 	0 	0 	
0.925 3.08504e-24 	0 	0 	
0.935 -2.52193e-15 	0 	0 	
0.945 -3.08505e-24 	0 	0 	
0.955 1.00896e-15 	0 	0 	
0.965 -9.83478e-14 	0 	0 	
0.975 -1.00867e-14 	0 	0 	
0.985 -1.06417e-13 	0 	0 	
0.995 -3.98432e-14 	0 	0 	
