0.005 4.18818e-14 	0 	0 	
0.015 -4.85834e-14 	0 	0 	
0.025 -4.18819e-14 	0 	0 	
0.035 5.69598e-14 	0 	0 	
0.045 1.00517e-13 	0 	0 	
0.055 1.00517e-13 	0 	0 	
0.065 9.71663e-14 	0 	0 	
0.075 1.25646e-13 	0 	0 	
0.085 5.52844e-14 	0 	0 	
0.095 1.23971e-13 	0 	0 	
0.105 -6.70112e-14 	0 	0 	
0.115 9.21404e-14 	0 	0 	
0.125 8.37638e-15 	0 	0 	
0.135 -1.62502e-13 	0 	0 	
0.145 -1.67531e-14 	0 	0 	
0.155 -5.36091e-14 	0 	0 	
0.165 1.2062e-13 	0 	0 	
0.175 -2.51292e-14 	0 	0 	
0.185 1.40723e-13 	0 	0 	
0.195 -1.34022e-14 	0 	0 	
0.205 -1.84279e-14 	0 	0 	
0.215 1.67528e-14 	0 	0 	
0.225 5.86349e-14 	0 	0 	
0.235 5.86348e-14 	0 	0 	
0.245 3.51808e-14 	0 	0 	
0.255 2.17786e-14 	0 	0 	
0.265 -1.27321e-13 	0 	0 	
0.275 -8.37652e-15 	0 	0 	
0.285 -1.34023e-14 	0 	0 	
0.295 -7.70631e-14 	0 	0 	
0.305 -9.04649e-14 	0 	0 	
0.315 6.36606e-14 	0 	0 	
0.325 -7.53875e-14 	0 	0 	
0.335 3.01554e-14 	0 	0 	
0.345 -1.64177e-13 	0 	0 	
0.355 -1.30672e-13 	0 	0 	
0.365 2.88736e-10 	0 	0 	
0.375 7.8662e-07 	0 	0 	
0.385 0.000187929 	0 	0 	
0.395 0.0105952 	0 	0 	
0.405 0.218601 	0 	0 	
0.415 1.94603 	0 	0 	
0.425 8.66259 	0 	0 	
0.435 23.5619 	0 	0 	
0.445 46.474 	0 	0 	
0.455 74.5298 	0 	0 	
0.465 103.226 	9.7031e-31 	0 	
0.475 124.023 	0 	0 	
0.485 129.986 	0 	0 	
0.495 130.199 	0 	0 	
0.505 130.164 	0 	0 	
0.515 130.138 	0 	0 	
0.525 130.115 	0 	0 	
0.535 130.095 	0 	0 	
0.545 130.071 	0 	0 	
0.555 129.975 	0 	0 	
0.565 128.613 	0 	0 	
0.575 117.127 	0 	0 	
0.585 69.777 	0 	0 	
0.595 8.09363 	0 	0 	
0.605 0.206098 	0 	0 	
0.615 0.00222893 	0 	0 	
0.625 6.44368e-06 	0 	0 	
0.635 1.73731e-09 	0 	0 	
0.645 2.63857e-14 	0 	0 	
0.655 7.41313e-14 	0 	0 	
0.665 -1.67109e-13 	0 	0 	
0.675 -3.76936e-14 	0 	0 	
0.685 -6.53358e-14 	0 	0 	
0.695 1.50775e-14 	0 	0 	
0.705 -9.67473e-14 	0 	0 	
0.715 -4.02071e-14 	0 	0 	
0.725 -5.02585e-14 	0 	0 	
0.735 4.90018e-14 	0 	0 	
0.745 -1.50775e-14 	0 	0 	
0.755 6.53359e-14 	0 	0 	
0.765 4.64889e-14 	0 	0 	
0.775 6.28242e-15 	0 	0 	
0.785 2.63855e-14 	0 	0 	
0.795 1.38209e-14 	0 	0 	
0.805 2.13601e-14 	0 	0 	
0.815 -4.14633e-14 	0 	0 	
0.825 -1.88469e-14 	0 	0 	
0.835 -2.6386e-14 	0 	0 	
0.845 -6.2823e-14 	0 	0 	
0.855 5.77973e-14 	0 	0 	
0.865 -2.51295e-14 	0 	0 	
0.875 -1.25646e-14 	0 	0 	
0.885 1.6334e-14 	0 	0 	
0.895 3.64373e-14 	0 	0 	
0.905 -1.75904e-14 	0 	0 	
0.915 -2.76419e-14 	0 	0 	
0.925 1.88469e-14 	0 	0 	
0.935 -9.92603e-14 	0 	0 	
0.945 -1.88467e-14 	0 	0 	
0.955 -7.5389e-15 	0 	0 	
0.965 -1.25646e-15 	0 	0 	
0.975 -1.25646e-14 	0 	0 	
0.985 -8.79537e-15 	0 	0 	
0.995 -2.5129e-14 	0 	0 	
