0.005 -1.15917e-13 	0 	0 	
0.015 5.45492e-14 	0 	0 	
0.025 -6.81868e-14 	0 	0 	
0.035 -9.54618e-14 	0 	0 	
0.045 3.40936e-15 	0 	0 	
0.055 -1.36373e-13 	0 	0 	
0.065 1.70465e-14 	0 	0 	
0.075 8.52332e-14 	0 	0 	
0.085 -2.38655e-14 	0 	0 	
0.095 -6.8187e-15 	0 	0 	
0.105 -1.0228e-13 	0 	0 	
0.115 -1.02278e-14 	0 	0 	
0.125 -9.99981e-20 	0 	0 	
0.135 1.0228e-14 	0 	0 	
0.145 5.45493e-14 	0 	0 	
0.155 2.0456e-14 	0 	0 	
0.165 -3.40948e-15 	0 	0 	
0.175 -1.19327e-13 	0 	0 	
0.185 1.15918e-13 	-4.49485e-30 	0 	
0.195 -1.17497e-25 	0 	0 	
0.205 -6.47772e-14 	0 	0 	
0.215 6.13681e-14 	0 	0 	
0.225 3.40932e-14 	0 	0 	
0.235 8.18243e-14 	0 	0 	
0.245 1.77286e-13 	0 	0 	
0.255 -1.0228e-14 	-4.25826e-30 	0 	
0.265 1.0228e-14 	-2.12913e-30 	0 	
0.275 -8.52333e-14 	0 	0 	
0.285 1.26146e-13 	0 	0 	
0.295 2.38655e-14 	0 	0 	
0.305 -5.45496e-14 	0 	0 	
0.315 4.09122e-14 	0 	0 	
0.325 1.7047e-14 	0 	0 	
0.335 3.75025e-14 	0 	0 	
0.345 3.40934e-15 	0 	0 	
0.355 5.45495e-14 	-1.89256e-30 	0 	
0.365 5.7959e-14 	0 	0 	
0.375 -5.11403e-14 	0 	0 	
0.385 -8.86429e-14 	0 	0 	
0.395 2.13439e-10 	0 	0 	
0.405 1.29936e-05 	0 	0 	
0.415 0.00417829 	0 	0 	
0.425 0.191865 	0 	0 	
0.435 2.45432 	0 	0 	
0.445 12.549 	0 	0 	
0.455 35.1244 	0 	0 	
0.465 68.1559 	0 	0 	
0.475 104.077 	0 	0 	
0.485 126.975 	0 	0 	
0.495 130.209 	7.15006e-31 	0 	
0.505 130.176 	0 	0 	
0.515 130.138 	0 	0 	
0.525 130.104 	0 	0 	
0.535 130.029 	0 	0 	
0.545 129.363 	0 	0 	
0.555 120.409 	0 	0 	
0.565 62.2059 	0 	0 	
0.575 4.35262 	0 	0 	
0.585 0.0502573 	0 	0 	
0.595 9.75226e-05 	0 	0 	
0.605 1.0291e-09 	0 	0 	
0.615 2.557e-14 	0 	0 	
0.625 7.671e-14 	0 	0 	
0.635 -2.557e-14 	0 	0 	
0.645 -1.7899e-14 	0 	0 	
0.655 9.2052e-14 	0 	0 	
0.665 3.3241e-14 	0 	0 	
0.675 5.11403e-14 	0 	0 	
0.685 -5.114e-14 	0 	0 	
0.695 -1.32964e-13 	0 	0 	
0.705 1.2785e-13 	0 	0 	
0.715 -1.0228e-14 	0 	0 	
0.725 3.83553e-14 	0 	0 	
0.735 6.6482e-14 	0 	0 	
0.745 -4.60259e-14 	0 	0 	
0.755 -2.55701e-15 	0 	0 	
0.765 -1.27849e-14 	0 	0 	
0.775 1.2785e-14 	0 	0 	
0.785 -3.5798e-14 	0 	0 	
0.795 9.7166e-14 	0 	0 	
0.805 -3.8355e-14 	0 	0 	
0.815 2.04561e-14 	0 	0 	
0.825 7.67105e-14 	0 	0 	
0.835 1.2785e-14 	0 	0 	
0.845 -4.0912e-14 	0 	0 	
0.855 -3.06839e-14 	0 	0 	
0.865 -4.0912e-14 	0 	0 	
0.875 1.27848e-14 	0 	0 	
0.885 -2.55701e-14 	0 	0 	
0.895 -2.0456e-14 	0 	0 	
0.905 -8.1824e-14 	0 	0 	
0.915 -6.13683e-14 	0 	0 	
0.925 -6.3925e-14 	0 	0 	
0.935 1.27854e-14 	0 	0 	
0.945 3.32414e-14 	0 	0 	
0.955 9.2052e-14 	0 	0 	
0.965 -1.20179e-13 	0 	0 	
0.975 -1.27851e-14 	0 	0 	
0.985 -1.53419e-14 	0 	0 	
0.995 3.57979e-14 	0 	0 	
