0.005 -4.64743e-14 	0 	0 	
0.015 -5.91491e-14 	0 	0 	
0.025 -8.44987e-15 	0 	0 	
0.035 -4.64743e-14 	0 	0 	
0.045 -5.49242e-14 	0 	0 	
0.055 6.7599e-14 	0 	0 	
0.065 -8.87237e-14 	-1.17266e-30 	0 	
0.075 2.11247e-14 	0 	0 	
0.085 -7.60489e-14 	0 	0 	
0.095 -3.80244e-14 	0 	0 	
0.105 1.01399e-13 	0 	0 	
0.115 8.87237e-14 	0 	0 	
0.125 -3.80244e-14 	0 	0 	
0.135 8.44988e-15 	0 	0 	
0.145 -7.18239e-14 	0 	0 	
0.155 -2.95746e-14 	0 	0 	
0.165 4.22494e-14 	0 	0 	
0.175 4.22494e-15 	0 	0 	
0.185 9.77771e-24 	0 	0 	
0.195 1.68998e-14 	0 	0 	
0.205 1.64773e-13 	0 	0 	
0.215 -1.05623e-13 	0 	0 	
0.225 -1.26748e-14 	0 	0 	
0.235 -1.68997e-14 	0 	0 	
0.245 7.60489e-14 	0 	0 	
0.255 2.53496e-14 	0 	0 	
0.265 3.37995e-14 	0 	0 	
0.275 -5.49242e-14 	0 	0 	
0.285 -1.09848e-13 	0 	0 	
0.295 -7.18239e-14 	0 	0 	
0.305 -2.95746e-14 	0 	0 	
0.315 -8.87237e-14 	0 	0 	
0.325 -1.77447e-13 	0 	0 	
0.335 6.33741e-14 	0 	0 	
0.345 -2.53496e-14 	0 	0 	
0.355 -1.09848e-13 	0 	0 	
0.365 1.39423e-13 	0 	0 	
0.375 -5.91491e-14 	0 	0 	
0.385 -4.64743e-14 	0 	0 	
0.395 1.43648e-13 	0 	0 	
0.405 5.91491e-14 	0 	0 	
0.415 4.64743e-14 	0 	0 	
0.425 3.80244e-14 	0 	0 	
0.435 -2.53496e-14 	0 	0 	
0.445 5.91491e-14 	0 	0 	
0.455 2.95746e-14 	0 	0 	
0.465 0.00437799 	0 	0 	
0.475 2.79626 	0 	0 	
0.485 33.9304 	0 	0 	
0.495 106.855 	0 	0 	
0.505 130.138 	0 	0 	
0.515 121.916 	0 	0 	
0.525 43.5176 	0 	0 	
0.535 0.188969 	0 	0 	
0.545 -1.58438e-14 	0 	0 	
0.555 -6.97112e-14 	0 	0 	
0.565 -4.43621e-14 	0 	0 	
0.575 9.50625e-15 	0 	0 	
0.585 -6.33756e-15 	0 	0 	
0.595 -3.16875e-15 	0 	0 	
0.605 -2.53496e-14 	0 	0 	
0.615 4.75306e-14 	0 	0 	
0.625 -3.80245e-14 	0 	0 	
0.635 -7.92175e-14 	0 	0 	
0.645 -7.92175e-14 	0 	0 	
0.655 -3.16838e-15 	0 	0 	
0.665 -2.21809e-14 	0 	0 	
0.675 -7.28803e-14 	0 	0 	
0.685 2.53496e-14 	0 	0 	
0.695 -3.16871e-14 	0 	0 	
0.705 -8.23861e-14 	0 	0 	
0.715 -4.43618e-14 	0 	0 	
0.725 1.01398e-13 	3.51796e-31 	0 	
0.735 -1.58437e-14 	0 	0 	
0.745 -9.5061e-15 	0 	0 	
0.755 2.85183e-14 	0 	0 	
0.765 -3.48555e-14 	-2.81438e-30 	0 	
0.775 -5.38675e-14 	0 	0 	
0.785 4.75304e-14 	0 	0 	
0.795 4.75303e-14 	0 	0 	
0.805 -1.58434e-14 	0 	0 	
0.815 4.75304e-14 	1.40719e-30 	0 	
0.825 -6.02055e-14 	3.51796e-31 	0 	
0.835 6.33742e-14 	0 	0 	
0.845 -5.38677e-14 	0 	0 	
0.855 -3.30553e-25 	0 	0 	
0.865 1.26745e-14 	0 	0 	
0.875 -2.21807e-14 	0 	0 	
0.885 5.38676e-14 	0 	0 	
0.895 -3.80243e-14 	0 	0 	
0.905 4.43617e-14 	0 	0 	
0.915 -4.11934e-14 	0 	0 	
0.925 -2.53494e-14 	0 	0 	
0.935 3.16863e-15 	0 	0 	
0.945 -3.16871e-14 	0 	0 	
0.955 -8.87237e-14 	0 	0 	
0.965 -1.90122e-14 	0 	0 	
0.975 3.80246e-14 	0 	0 	
0.985 -1.58434e-14 	0 	0 	
0.995 -2.21811e-14 	0 	0 	
