0.005 5.31248e-14 	0 	0 	
0.015 5.31248e-14 	0 	0 	
0.025 1.10956e-13 	0 	0 	
0.035 -3.36232e-15 	0 	0 	
0.045 -8.74202e-15 	0 	0 	
0.055 -5.44695e-14 	0 	0 	
0.065 7.06088e-14 	0 	0 	
0.075 1.07594e-13 	0 	0 	
0.085 4.50554e-14 	0 	0 	
0.095 -1.11629e-13 	0 	0 	
0.105 9.68346e-14 	0 	0 	
0.115 2.21912e-14 	1.16654e-30 	0 	
0.125 -1.0087e-13 	0 	0 	
0.135 -2.62261e-14 	0 	0 	
0.145 1.17528e-24 	0 	0 	
0.155 -3.29504e-14 	0 	0 	
0.165 -4.70735e-15 	0 	0 	
0.175 -5.71595e-14 	0 	0 	
0.185 -1.04232e-13 	0 	0 	
0.195 -6.72464e-14 	0 	0 	
0.205 7.39706e-15 	0 	0 	
0.215 4.03478e-15 	0 	0 	
0.225 -1.24406e-13 	0 	0 	
0.235 -1.74844e-14 	0 	0 	
0.245 -4.70722e-15 	0 	0 	
0.255 1.01542e-13 	0 	0 	
0.265 -7.59883e-14 	0 	0 	
0.275 -5.04347e-14 	0 	0 	
0.285 -6.65735e-14 	0 	0 	
0.295 -1.59374e-13 	0 	0 	
0.305 -6.99363e-14 	0 	0 	
0.315 -8.87647e-14 	0 	0 	
0.325 -1.44579e-13 	0 	0 	
0.335 -1.29786e-13 	0 	0 	
0.345 -7.66609e-14 	0 	0 	
0.355 2.75708e-14 	0 	0 	
0.365 1.1432e-14 	0 	0 	
0.375 -6.72463e-14 	0 	0 	
0.385 4.84171e-14 	0 	0 	
0.395 2.3505e-24 	0 	0 	
0.405 6.7253e-16 	0 	0 	
0.415 8.00227e-14 	0 	0 	
0.425 -1.78203e-13 	0 	0 	
0.435 2.35056e-24 	0 	0 	
0.445 -1.54666e-14 	0 	0 	
0.455 -3.96755e-14 	0 	0 	
0.465 -1.34493e-15 	0 	0 	
0.475 1.10956e-13 	0 	0 	
0.485 8.07246 	0 	0 	
0.495 80.174 	0 	0 	
0.505 125.688 	0 	0 	
0.515 47.6997 	0 	0 	
0.525 -5.54783e-14 	0 	0 	
0.535 -7.16172e-14 	0 	0 	
0.545 1.07426e-13 	0 	0 	
0.555 -4.0348e-15 	0 	0 	
0.565 -4.13564e-14 	0 	0 	
0.575 2.77391e-14 	0 	0 	
0.585 -1.16504e-13 	0 	0 	
0.595 -8.57395e-15 	0 	0 	
0.605 4.74089e-14 	0 	0 	
0.615 -5.04317e-15 	0 	0 	
0.625 -6.30435e-14 	0 	0 	
0.635 6.75821e-14 	0 	0 	
0.645 2.52175e-14 	0 	0 	
0.655 -5.04278e-16 	0 	0 	
0.665 -2.52174e-14 	0 	0 	
0.675 4.28693e-14 	0 	0 	
0.685 4.13565e-14 	0 	0 	
0.695 7.56525e-15 	0 	0 	
0.705 -5.39652e-14 	0 	0 	
0.715 -2.4713e-14 	0 	0 	
0.725 6.30435e-14 	0 	0 	
0.735 6.55634e-15 	0 	0 	
0.745 3.98432e-14 	0 	0 	
0.755 4.33738e-14 	0 	0 	
0.765 8.81442e-25 	0 	0 	
0.775 -5.04345e-14 	0 	0 	
0.785 7.5652e-14 	0 	0 	
0.795 9.3304e-14 	0 	0 	
0.805 1.56347e-14 	0 	0 	
0.815 3.42954e-14 	0 	0 	
0.825 -2.52172e-15 	0 	0 	
0.835 -9.73391e-14 	0 	0 	
0.845 2.31998e-14 	0 	0 	
0.855 1.09443e-13 	0 	0 	
0.865 -1.71478e-14 	0 	0 	
0.875 1.26087e-14 	0 	0 	
0.885 3.37913e-14 	0 	0 	
0.895 1.15495e-13 	0 	0 	
0.905 4.13565e-14 	0 	0 	
0.915 -2.77391e-14 	0 	0 	
0.925 -4.79132e-14 	0 	0 	
0.935 5.7496e-14 	0 	0 	
0.945 2.01748e-15 	0 	0 	
0.955 -6.153e-14 	0 	0 	
0.965 -4.8922e-14 	0 	0 	
0.975 4.79131e-14 	0 	0 	
0.985 4.7913e-14 	0 	0 	
0.995 6.15302e-14 	0 	0 	
