0.005 0 	0 	0 	
0.015 0 	0 	0 	
0.025 0 	0 	0 	
0.035 0 	0 	0 	
0.045 0 	0 	0 	
0.055 5.87817e-15 	0 	0 	
0.065 5.87818e-15 	0 	0 	
0.075 -5.87817e-15 	0 	0 	
0.085 -5.87818e-15 	0 	0 	
0.095 0 	0 	0 	
0.105 0 	0 	0 	
0.115 8.81725e-15 	0 	0 	
0.125 2.05736e-14 	0 	0 	
0.135 8.81723e-15 	0 	0 	
0.145 -1.46954e-14 	-4.89456e-31 	0 	
0.155 -2.64518e-14 	0 	0 	
0.165 -3.23299e-14 	0 	0 	
0.175 -2.35127e-14 	0 	0 	
0.185 -2.50001e-20 	0 	0 	
0.195 2.05736e-14 	0 	0 	
0.205 2.64518e-14 	0 	0 	
0.215 1.17564e-14 	0 	0 	
0.225 -2.93907e-15 	0 	0 	
0.235 -5.87815e-15 	9.78913e-31 	0 	
0.245 -5.87815e-15 	0 	0 	
0.255 2.49999e-20 	0 	0 	
0.265 8.81727e-15 	0 	0 	
0.275 5.87818e-15 	0 	0 	
0.285 0 	0 	0 	
0.295 0 	0 	0 	
0.305 0 	0 	0 	
0.315 0 	0 	0 	
0.325 5.87817e-15 	0 	0 	
0.335 5.87818e-15 	0 	0 	
0.345 -5.87817e-15 	0 	0 	
0.355 -5.87818e-15 	0 	0 	
0.365 0 	0 	0 	
0.375 1.22542e-10 	0 	0 	
0.385 8.92911e-09 	0 	0 	
0.395 3.06368e-07 	0 	0 	
0.405 6.64721e-06 	0 	0 	
0.415 0.000102861 	0 	0 	
0.425 0.00120633 	0 	0 	
0.435 0.0110686 	0 	0 	
0.445 0.080722 	0 	0 	
0.455 0.470782 	0 	0 	
0.465 2.20006 	0 	0 	
0.475 8.29143 	0 	0 	
0.485 25.6043 	0 	0 	
0.495 58.9688 	0 	0 	
0.505 80.5074 	0 	0 	
0.515 60.8545 	0 	0 	
0.525 26.8022 	0 	0 	
0.535 8.10125 	0 	0 	
0.545 1.75993 	0 	0 	
0.555 0.293013 	0 	0 	
0.565 0.0387942 	0 	0 	
0.575 0.00409945 	0 	0 	
0.585 0.000340513 	0 	0 	
0.595 2.15168e-05 	0 	0 	
0.605 9.7245e-07 	0 	0 	
0.615 2.78492e-08 	0 	0 	
0.625 3.76097e-10 	0 	0 	
0.635 -6.61295e-15 	0 	0 	
0.645 -2.20433e-15 	0 	0 	
0.655 1.10216e-14 	0 	0 	
0.665 -6.61294e-15 	0 	0 	
0.675 -3.30647e-14 	0 	0 	
0.685 -1.98388e-14 	0 	0 	
0.695 1.98388e-14 	0 	0 	
0.705 3.5269e-14 	0 	0 	
0.715 1.54302e-14 	0 	0 	
0.725 0 	0 	0 	
0.735 0 	0 	0 	
0.745 0 	0 	0 	
0.755 0 	0 	0 	
0.765 0 	0 	0 	
0.775 -2.20431e-15 	0 	0 	
0.785 -1.32259e-14 	0 	0 	
0.795 -1.98388e-14 	0 	0 	
0.805 -2.1771e-25 	0 	0 	
0.815 1.98388e-14 	-7.34184e-31 	0 	
0.825 1.32259e-14 	0 	0 	
0.835 2.20432e-15 	0 	0 	
0.845 0 	0 	0 	
0.855 0 	0 	0 	
0.865 -6.61295e-15 	0 	0 	
0.875 -8.81728e-15 	0 	0 	
0.885 4.40861e-15 	0 	0 	
0.895 8.81726e-15 	0 	0 	
0.905 5.43285e-26 	0 	0 	
0.915 -1.54302e-14 	0 	0 	
0.925 -2.42475e-14 	0 	0 	
0.935 -2.71409e-25 	0 	0 	
0.945 2.42475e-14 	0 	0 	
0.955 1.54302e-14 	0 	0 	
0.965 2.20432e-15 	0 	0 	
0.975 0 	0 	0 	
0.985 0 	0 	0 	
0.995 0 	0 	0 	
