0.005 1.63648e-13 	0 	0 	
0.015 2.0456e-14 	0 	0 	
0.025 -1.70467e-14 	0 	0 	
0.035 -3.0684e-14 	0 	0 	
0.045 2.04561e-14 	0 	0 	
0.055 -3.0684e-14 	0 	0 	
0.065 -8.18244e-14 	0 	0 	
0.075 -8.52333e-14 	0 	0 	
0.085 -2.72748e-14 	0 	0 	
0.095 -8.1824e-14 	0 	0 	
0.105 -2.14788e-13 	0 	0 	
0.115 4.43211e-14 	0 	0 	
0.125 1.99997e-19 	0 	0 	
0.135 1.36375e-14 	0 	0 	
0.145 7.15959e-14 	0 	0 	
0.155 2.31835e-13 	0 	0 	
0.165 6.81866e-14 	0 	0 	
0.175 3.40933e-14 	0 	0 	
0.185 3.40935e-14 	-9.22624e-30 	0 	
0.195 1.19327e-13 	0 	0 	
0.205 1.5342e-13 	0 	0 	
0.215 1.97742e-13 	0 	0 	
0.225 -3.00001e-19 	0 	0 	
0.235 1.19327e-13 	0 	0 	
0.245 1.26146e-13 	0 	0 	
0.255 2.31835e-13 	-9.6994e-30 	0 	
0.265 6.13682e-14 	-4.7314e-30 	0 	
0.275 8.52338e-14 	0 	0 	
0.285 7.05733e-13 	0 	0 	
0.295 3.45287e-10 	0 	0 	
0.305 6.91569e-08 	0 	0 	
0.315 5.95659e-06 	0 	0 	
0.325 0.000241282 	0 	0 	
0.335 0.00515371 	0 	0 	
0.345 0.0626361 	0 	0 	
0.355 0.461337 	-4.38187e-30 	0 	
0.365 2.1422 	0 	0 	
0.375 6.66834 	0 	0 	
0.385 15.2311 	0 	0 	
0.395 27.859 	-5.16638e-31 	0 	
0.405 43.7284 	0 	0 	
0.415 61.7579 	0 	0 	
0.425 80.8528 	0 	0 	
0.435 99.6883 	0 	0 	
0.445 116.053 	0 	0 	
0.455 126.502 	0 	0 	
0.465 129.871 	0 	0 	
0.475 130.194 	0 	0 	
0.485 130.174 	0 	0 	
0.495 130.153 	7.13716e-31 	0 	
0.505 130.137 	0 	0 	
0.515 130.124 	0 	0 	
0.525 130.112 	0 	0 	
0.535 130.098 	0 	0 	
0.545 130.081 	0 	0 	
0.555 130.056 	0 	0 	
0.565 130.015 	0 	0 	
0.575 129.961 	0 	0 	
0.585 129.852 	0 	0 	
0.595 -5146.16 	0 	0 	
0.605 -4.29874e+09 	0 	0 	
0.615 4.88497e+12 	0 	0 	
0.625 -1.21409e+08 	0 	0 	
0.635 2.42549e+07 	0 	0 	
0.645 -1400.6 	0 	0 	
0.655 11.4462 	0 	0 	
0.665 0.265214 	0 	0 	
0.675 0.00669087 	0 	0 	
0.685 0.000105378 	0 	0 	
0.695 8.71775e-07 	0 	0 	
0.705 3.35479e-09 	0 	0 	
0.715 4.42106e-12 	0 	0 	
0.725 1.5342e-13 	0 	0 	
0.735 7.671e-14 	0 	0 	
0.745 -5.62539e-14 	0 	0 	
0.755 6.9039e-14 	0 	0 	
0.765 1.7899e-14 	0 	0 	
0.775 5.114e-14 	0 	0 	
0.785 -1.12508e-13 	0 	0 	
0.795 -7.15964e-14 	0 	0 	
0.805 6.6482e-14 	0 	0 	
0.815 1.0228e-13 	0 	0 	
0.825 1.27855e-14 	0 	0 	
0.835 -3.5798e-14 	0 	0 	
0.845 9.7166e-14 	0 	0 	
0.855 -2.3013e-14 	0 	0 	
0.865 -2.04563e-14 	0 	0 	
0.875 -1.2785e-14 	0 	0 	
0.885 -7.67098e-15 	0 	0 	
0.895 2.0456e-14 	0 	0 	
0.905 3.8355e-14 	0 	0 	
0.915 -5.8811e-14 	0 	0 	
0.925 -7.671e-14 	0 	0 	
0.935 -1.2785e-14 	0 	0 	
0.945 5.6254e-14 	0 	0 	
0.955 -3.08512e-25 	0 	0 	
0.965 1.35521e-13 	0 	0 	
0.975 -1.2785e-14 	0 	0 	
0.985 4.09119e-14 	0 	0 	
0.995 1.2785e-14 	0 	0 	
