0.005 4.90141e-14 	0 	0 	
0.015 8.22944e-14 	0 	0 	
0.025 9.99288e-14 	0 	0 	
0.035 9.11115e-14 	0 	0 	
0.045 3.52689e-14 	0 	0 	
0.055 -2.35127e-14 	0 	0 	
0.065 -2.93909e-14 	0 	0 	
0.075 -2.05736e-14 	0 	0 	
0.085 -2.64518e-14 	0 	0 	
0.095 -1.17563e-14 	0 	0 	
0.105 1.17563e-14 	0 	0 	
0.115 1.17563e-14 	0 	0 	
0.125 -1.17563e-14 	0 	0 	
0.135 -5.58426e-14 	0 	0 	
0.145 -9.99289e-14 	-5.22087e-30 	0 	
0.155 -1.26381e-13 	0 	0 	
0.165 -1.58711e-13 	0 	0 	
0.175 -2.02797e-13 	0 	0 	
0.185 -2.05736e-13 	0 	0 	
0.195 -1.58711e-13 	0 	0 	
0.205 -1.11685e-13 	0 	0 	
0.215 -6.7599e-14 	0 	0 	
0.225 -8.81725e-15 	0 	0 	
0.235 4.11472e-14 	1.04417e-29 	0 	
0.245 6.17208e-14 	0 	0 	
0.255 5.58426e-14 	0 	0 	
0.265 4.11472e-14 	0 	0 	
0.275 4.11472e-14 	0 	0 	
0.285 4.11472e-14 	0 	0 	
0.295 2.05736e-14 	0 	0 	
0.305 2.93908e-15 	0 	0 	
0.315 -2.93907e-15 	0 	0 	
0.325 2.9391e-15 	0 	0 	
0.335 8.81725e-15 	0 	0 	
0.345 -2.9391e-15 	0 	0 	
0.355 -1.17563e-14 	0 	0 	
0.365 -3.23299e-14 	0 	0 	
0.375 0.815255 	0 	0 	
0.385 5.88373 	0 	0 	
0.395 18.1804 	0 	0 	
0.405 35.8788 	0 	0 	
0.415 55.7525 	0 	0 	
0.425 76.1151 	0 	0 	
0.435 95.5315 	0 	0 	
0.445 111.915 	0 	0 	
0.455 123.174 	0 	0 	
0.465 128.859 	0 	0 	
0.475 130.442 	0 	0 	
0.485 130.169 	0 	0 	
0.495 129.697 	0 	0 	
0.505 129.701 	0 	0 	
0.515 130.131 	0 	0 	
0.525 130.571 	0 	0 	
0.535 130.756 	0 	0 	
0.545 130.62 	0 	0 	
0.555 130.153 	0 	0 	
0.565 129.689 	0 	0 	
0.575 129.409 	-3.39664e-30 	0 	
0.585 129.229 	-2.7095e-30 	0 	
0.595 129.718 	0 	0 	
0.605 129.785 	0 	0 	
0.615 125.58 	0 	0 	
0.625 108.059 	0 	0 	
0.635 69.139 	0 	0 	
0.645 25.9721 	0 	0 	
0.655 3.965 	0 	0 	
0.665 1.10216e-14 	0 	0 	
0.675 1.98388e-14 	0 	0 	
0.685 3.96777e-14 	0 	0 	
0.695 4.40863e-14 	0 	0 	
0.705 5.06992e-14 	0 	0 	
0.715 5.29036e-14 	0 	0 	
0.725 6.61295e-14 	0 	0 	
0.735 8.81728e-14 	0 	0 	
0.745 6.61295e-14 	0 	0 	
0.755 2.42475e-14 	0 	0 	
0.765 4.40863e-15 	0 	0 	
0.775 -4.40862e-15 	0 	0 	
0.785 -2.86561e-14 	0 	0 	
0.795 -4.84949e-14 	0 	0 	
0.805 -2.86561e-14 	0 	0 	
0.815 -8.81725e-15 	-7.83129e-30 	0 	
0.825 -1.76345e-14 	0 	0 	
0.835 -3.30647e-14 	0 	0 	
0.845 -3.74734e-14 	0 	0 	
0.855 -2.42475e-14 	0 	0 	
0.865 2.2043e-15 	0 	0 	
0.875 2.2043e-15 	0 	0 	
0.885 -4.84949e-14 	0 	0 	
0.895 -8.15596e-14 	0 	0 	
0.905 -5.51079e-14 	0 	0 	
0.915 -3.30647e-14 	0 	0 	
0.925 -3.74733e-14 	0 	0 	
0.935 -1.54302e-14 	0 	0 	
0.945 4.62906e-14 	0 	0 	
0.955 1.10216e-13 	0 	0 	
0.965 1.23442e-13 	0 	0 	
0.975 9.03769e-14 	0 	0 	
0.985 6.61294e-14 	0 	0 	
0.995 4.89007e-14 	0 	0 	
