0.005 4.90141e-14 	0 	0 	
0.015 8.22944e-14 	0 	0 	
0.025 9.99288e-14 	0 	0 	
0.035 1.02868e-13 	0 	0 	
0.045 8.52334e-14 	0 	0 	
0.055 5.87817e-14 	0 	0 	
0.065 1.76345e-14 	0 	0 	
0.075 -3.23299e-14 	0 	0 	
0.085 -4.11472e-14 	0 	0 	
0.095 -1.76345e-14 	0 	0 	
0.105 -2.35127e-14 	0 	0 	
0.115 -6.46599e-14 	0 	0 	
0.125 -1.11685e-13 	0 	0 	
0.135 -1.70467e-13 	0 	0 	
0.145 -2.11614e-13 	-1.63152e-30 	0 	
0.155 -1.96919e-13 	1.30522e-30 	0 	
0.165 -1.6165e-13 	0 	0 	
0.175 -1.32259e-13 	0 	0 	
0.185 -8.52335e-14 	0 	0 	
0.195 -5.87815e-15 	0 	0 	
0.205 4.99645e-14 	0 	0 	
0.215 5.58427e-14 	0 	0 	
0.225 8.22944e-14 	1.63152e-31 	0 	
0.235 1.11685e-13 	6.19977e-30 	0 	
0.245 8.22944e-14 	6.52609e-31 	0 	
0.255 4.70254e-14 	0 	0 	
0.265 3.5269e-14 	0 	0 	
0.275 2.05736e-14 	0 	0 	
0.285 3.5269e-14 	0 	0 	
0.295 6.46599e-14 	0 	0 	
0.305 5.87818e-14 	0 	0 	
0.315 4.40863e-14 	0 	0 	
0.325 2.64518e-14 	0 	0 	
0.335 -8.81725e-15 	0 	0 	
0.345 -4.11472e-14 	0 	0 	
0.355 -5.58426e-14 	0 	0 	
0.365 -6.17208e-14 	0 	0 	
0.375 -6.17208e-14 	0 	0 	
0.385 -6.17208e-14 	0 	0 	
0.395 -7.05381e-14 	0 	0 	
0.405 0.339687 	0 	0 	
0.415 4.60912 	0 	0 	
0.425 17.9521 	0 	0 	
0.435 39.7578 	0 	0 	
0.445 65.2104 	0 	0 	
0.455 90.2705 	0 	0 	
0.465 110.616 	0 	0 	
0.475 123.384 	0 	0 	
0.485 129.412 	0 	0 	
0.495 130.809 	0 	0 	
0.505 130.142 	0 	0 	
0.515 129.395 	0 	0 	
0.525 129.125 	0 	0 	
0.535 129.355 	0 	0 	
0.545 129.962 	0 	0 	
0.555 130.668 	0 	0 	
0.565 130.362 	0 	0 	
0.575 124.628 	-2.04131e-30 	0 	
0.585 102.085 	-8.90774e-31 	0 	
0.595 58.8403 	0 	0 	
0.605 18.3321 	0 	0 	
0.615 1.82226 	0 	0 	
0.625 -9.47856e-14 	0 	0 	
0.635 -9.91942e-14 	0 	0 	
0.645 -5.29036e-14 	0 	0 	
0.655 -6.61295e-15 	0 	0 	
0.665 -6.61293e-15 	0 	0 	
0.675 -2.20431e-14 	0 	0 	
0.685 -6.61293e-15 	0 	0 	
0.695 1.98388e-14 	0 	0 	
0.705 2.42475e-14 	0 	0 	
0.715 4.40863e-14 	0 	0 	
0.725 9.47854e-14 	0 	0 	
0.735 1.23441e-13 	0 	0 	
0.745 9.25811e-14 	0 	0 	
0.755 4.1882e-14 	0 	0 	
0.765 1.54302e-14 	0 	0 	
0.775 1.08858e-25 	0 	0 	
0.785 -2.20431e-14 	0 	0 	
0.795 -2.64518e-14 	0 	0 	
0.805 2.2043e-15 	0 	0 	
0.815 2.42475e-14 	-5.38403e-30 	0 	
0.825 1.98389e-14 	0 	0 	
0.835 6.61295e-15 	0 	0 	
0.845 0 	0 	0 	
0.855 -6.61295e-15 	0 	0 	
0.865 -3.30647e-14 	0 	0 	
0.875 -6.61294e-14 	0 	0 	
0.885 -6.61294e-14 	0 	0 	
0.895 -3.30647e-14 	0 	0 	
0.905 -1.10216e-14 	0 	0 	
0.915 -1.76345e-14 	0 	0 	
0.925 -2.64518e-14 	0 	0 	
0.935 -2.42475e-14 	0 	0 	
0.945 -1.32259e-14 	0 	0 	
0.955 1.76345e-14 	0 	0 	
0.965 5.95165e-14 	0 	0 	
0.975 7.7151e-14 	0 	0 	
0.985 7.05381e-14 	0 	0 	
0.995 5.62594e-14 	0 	0 	
