0.005 5.78314e-14 	0 	0 	
0.015 1.08746e-13 	0 	0 	
0.025 1.2932e-13 	0 	0 	
0.035 1.32259e-13 	0 	0 	
0.045 1.2932e-13 	0 	0 	
0.055 1.02868e-13 	0 	0 	
0.065 6.46599e-14 	0 	0 	
0.075 -8.81732e-15 	0 	0 	
0.085 -1.02868e-13 	0 	0 	
0.095 -1.44015e-13 	0 	0 	
0.105 -1.61649e-13 	0 	0 	
0.115 -1.70467e-13 	0 	0 	
0.125 -1.64589e-13 	0 	0 	
0.135 -1.88101e-13 	0 	0 	
0.145 -2.26309e-13 	-3.26305e-31 	0 	
0.155 -2.52761e-13 	0 	0 	
0.165 -2.67457e-13 	0 	0 	
0.175 -2.2631e-13 	0 	0 	
0.185 -1.23441e-13 	0 	0 	
0.195 -2.35126e-14 	0 	0 	
0.205 1.17564e-14 	0 	0 	
0.215 5.8782e-15 	0 	0 	
0.225 2.64518e-14 	0 	0 	
0.235 4.70254e-14 	6.52609e-31 	0 	
0.245 6.46598e-14 	0 	0 	
0.255 1.02868e-13 	0 	0 	
0.265 1.23441e-13 	0 	0 	
0.275 1.29319e-13 	0 	0 	
0.285 1.35198e-13 	0 	0 	
0.295 1.08746e-13 	0 	0 	
0.305 7.0538e-14 	0 	0 	
0.315 6.17208e-14 	0 	0 	
0.325 6.7599e-14 	0 	0 	
0.335 5.87817e-14 	0 	0 	
0.345 -2.939e-15 	0 	0 	
0.355 -6.75988e-14 	0 	0 	
0.365 0.531385 	0 	0 	
0.375 4.38994 	0 	0 	
0.385 14.5204 	0 	0 	
0.395 29.8098 	0 	0 	
0.405 47.399 	0 	0 	
0.415 65.6798 	0 	0 	
0.425 83.6613 	0 	0 	
0.435 100.317 	0 	0 	
0.445 114.339 	0 	0 	
0.455 123.926 	0 	0 	
0.465 128.679 	0 	0 	
0.475 130.519 	0 	0 	
0.485 130.947 	0 	0 	
0.495 130.636 	0 	0 	
0.505 130.172 	0 	0 	
0.515 129.867 	0 	0 	
0.525 129.841 	0 	0 	
0.535 129.998 	0 	0 	
0.545 130.196 	0 	0 	
0.555 130.301 	0 	0 	
0.565 130.218 	0 	0 	
0.575 129.99 	-1.68861e-30 	0 	
0.585 129.846 	-8.47946e-31 	0 	
0.595 129.915 	0 	0 	
0.605 130.007 	0 	0 	
0.615 129.322 	0 	0 	
0.625 123.995 	0 	0 	
0.635 103.09 	0 	0 	
0.645 61.343 	0 	0 	
0.655 20.3086 	0 	0 	
0.665 2.37483 	0 	0 	
0.675 -6.39251e-14 	0 	0 	
0.685 1.98388e-14 	0 	0 	
0.695 7.27423e-14 	0 	0 	
0.705 3.74733e-14 	0 	0 	
0.715 8.81725e-15 	0 	0 	
0.725 5.06992e-14 	0 	0 	
0.735 8.15597e-14 	0 	0 	
0.745 7.27424e-14 	0 	0 	
0.755 5.51079e-14 	0 	0 	
0.765 4.1882e-14 	0 	0 	
0.775 3.96777e-14 	0 	0 	
0.785 1.54302e-14 	0 	0 	
0.795 -2.42474e-14 	0 	0 	
0.805 -2.64518e-14 	0 	0 	
0.815 -4.40862e-15 	-4.89455e-31 	0 	
0.825 8.81726e-15 	0 	0 	
0.835 2.42475e-14 	0 	0 	
0.845 4.1882e-14 	0 	0 	
0.855 3.96777e-14 	0 	0 	
0.865 1.54302e-14 	0 	0 	
0.875 -1.10216e-14 	0 	0 	
0.885 -4.1882e-14 	0 	0 	
0.895 -6.61294e-14 	0 	0 	
0.905 -4.1882e-14 	0 	0 	
0.915 6.61295e-15 	0 	0 	
0.925 2.42475e-14 	0 	0 	
0.935 2.20432e-14 	0 	0 	
0.945 3.08604e-14 	0 	0 	
0.955 3.96777e-14 	0 	0 	
0.965 2.86561e-14 	0 	0 	
0.975 3.5269e-14 	0 	0 	
0.985 5.95165e-14 	0 	0 	
0.995 4.33735e-14 	0 	0 	
