0.005 -1.49995e-19 	0 	0 	
0.015 -2.93908e-14 	0 	0 	
0.025 5.87819e-14 	0 	0 	
0.035 -2.93909e-14 	0 	0 	
0.045 -5.48311e-24 	0 	0 	
0.055 -7.34771e-14 	0 	0 	
0.065 -8.81723e-14 	0 	0 	
0.075 1.00002e-19 	0 	0 	
0.085 2.9391e-14 	0 	0 	
0.095 -1.46952e-14 	0 	0 	
0.105 1.32259e-13 	0 	0 	
0.115 8.81727e-14 	0 	0 	
0.125 1.76345e-13 	0 	0 	
0.135 1.6165e-13 	0 	0 	
0.145 1.91041e-13 	0 	0 	
0.155 2.49822e-13 	0 	0 	
0.165 2.79213e-13 	0 	0 	
0.175 1.76345e-13 	0 	0 	
0.185 2.05736e-13 	0 	0 	
0.195 2.93908e-14 	0 	0 	
0.205 -1.46953e-14 	0 	0 	
0.215 2.9391e-14 	0 	0 	
0.225 -1.32259e-13 	0 	0 	
0.235 -1.32259e-13 	0 	0 	
0.245 -1.46954e-13 	0 	0 	
0.255 -1.32259e-13 	0 	0 	
0.265 -1.91041e-13 	0 	0 	
0.275 -2.35127e-13 	0 	0 	
0.285 7.34771e-14 	0 	0 	
0.295 5.4138e-11 	0 	0 	
0.305 8.35146e-09 	0 	0 	
0.315 6.42098e-07 	0 	0 	
0.325 2.71399e-05 	0 	0 	
0.335 0.00067248 	0 	0 	
0.345 0.010207 	0 	0 	
0.355 0.0978884 	0 	0 	
0.365 0.608574 	0 	0 	
0.375 2.53375 	0 	0 	
0.385 7.44138 	0 	0 	
0.395 16.5398 	0 	0 	
0.405 29.9198 	0 	0 	
0.415 46.7761 	0 	0 	
0.425 65.9536 	0 	0 	
0.435 86.1243 	0 	0 	
0.445 105.428 	0 	0 	
0.455 120.718 	0 	0 	
0.465 128.494 	0 	0 	
0.475 130.135 	0 	0 	
0.485 130.197 	0 	0 	
0.495 130.171 	0 	0 	
0.505 130.151 	0 	0 	
0.515 130.135 	0 	0 	
0.525 130.122 	0 	0 	
0.535 130.11 	0 	0 	
0.545 130.099 	0 	0 	
0.555 130.089 	0 	0 	
0.565 130.078 	0 	0 	
0.575 130.066 	0 	0 	
0.585 130.046 	0 	0 	
0.595 129.943 	0 	0 	
0.605 129.192 	0 	0 	
0.615 124.568 	0 	0 	
0.625 103.049 	0 	0 	
0.635 45.6824 	0 	0 	
0.645 5.68285 	0 	0 	
0.655 0.332707 	0 	0 	
0.665 0.0137629 	0 	0 	
0.675 0.000392461 	0 	0 	
0.685 7.11985e-06 	0 	0 	
0.695 7.50304e-08 	0 	0 	
0.705 4.09441e-10 	0 	0 	
0.715 8.70704e-13 	0 	0 	
0.725 -7.71509e-14 	0 	0 	
0.735 -1.65324e-13 	0 	0 	
0.745 -1.76345e-13 	0 	0 	
0.755 -1.32259e-13 	0 	0 	
0.765 -1.32259e-13 	0 	0 	
0.775 -2.0941e-13 	0 	0 	
0.785 -1.10216e-13 	0 	0 	
0.795 -1.21237e-13 	0 	0 	
0.805 -7.7151e-14 	0 	0 	
0.815 -2.20432e-14 	0 	0 	
0.825 -6.61295e-14 	0 	0 	
0.835 -4.40863e-14 	0 	0 	
0.845 1.4328e-13 	0 	0 	
0.855 -4.99959e-20 	0 	0 	
0.865 8.81725e-14 	0 	0 	
0.875 2.20432e-14 	0 	0 	
0.885 6.61293e-14 	0 	0 	
0.895 2.20432e-14 	0 	0 	
0.905 1.10215e-14 	0 	0 	
0.915 2.20432e-14 	0 	0 	
0.925 4.40862e-14 	0 	0 	
0.935 8.81726e-14 	0 	0 	
0.945 8.81726e-14 	0 	0 	
0.955 4.40863e-14 	0 	0 	
0.965 4.40864e-14 	0 	0 	
0.975 2.20432e-14 	0 	0 	
0.985 -2.20432e-14 	0 	0 	
0.995 -3.30647e-14 	0 	0 	
