0.005 -4.30375e-14 	0 	0 	
0.015 -3.36231e-14 	0 	0 	
0.025 5.71596e-14 	0 	0 	
0.035 3.3623e-14 	0 	0 	
0.045 -1.47942e-14 	0 	0 	
0.055 2.82434e-14 	0 	0 	
0.065 1.2844e-13 	0 	0 	
0.075 -1.27768e-13 	0 	0 	
0.085 1.76288e-25 	0 	0 	
0.095 -6.7246e-14 	0 	0 	
0.105 -9.8852e-14 	0 	0 	
0.115 -1.81565e-14 	8.16576e-30 	0 	
0.125 -8.40581e-14 	0 	0 	
0.135 -2.28634e-14 	0 	0 	
0.145 -6.32112e-14 	0 	0 	
0.155 -3.42956e-14 	0 	0 	
0.165 1.17008e-13 	0 	0 	
0.175 3.36232e-15 	0 	0 	
0.185 -1.81565e-14 	0 	0 	
0.195 -4.43824e-14 	0 	0 	
0.205 3.96755e-14 	0 	0 	
0.215 -6.59016e-14 	0 	0 	
0.225 -5.71594e-14 	0 	0 	
0.235 4.23652e-14 	0 	0 	
0.245 -3.36234e-14 	0 	0 	
0.255 -2.42086e-14 	0 	0 	
0.265 6.52289e-14 	0 	0 	
0.275 1.76293e-24 	0 	0 	
0.285 -1.64081e-13 	0 	0 	
0.295 3.09332e-14 	0 	0 	
0.305 9.81796e-14 	0 	0 	
0.315 -1.21043e-14 	0 	0 	
0.325 2.65623e-13 	0 	0 	
0.335 9.57255e-10 	0 	0 	
0.345 4.21392e-07 	0 	0 	
0.355 4.74876e-05 	0 	0 	
0.365 0.00220492 	0 	0 	
0.375 0.0456525 	0 	0 	
0.385 0.466399 	0 	0 	
0.395 2.61687 	0 	0 	
0.405 8.99056 	0 	0 	
0.415 21.266 	0 	0 	
0.425 39.103 	0 	0 	
0.435 60.91 	0 	0 	
0.445 84.607 	0 	0 	
0.455 107.284 	0 	0 	
0.465 123.788 	0 	0 	
0.475 129.686 	0 	0 	
0.485 130.202 	0 	0 	
0.495 130.176 	0 	0 	
0.505 130.152 	0 	0 	
0.515 130.133 	0 	0 	
0.525 130.117 	0 	0 	
0.535 130.103 	0 	0 	
0.545 130.09 	0 	0 	
0.555 130.077 	0 	0 	
0.565 130.06 	0 	0 	
0.575 130.007 	0 	0 	
0.585 129.732 	0 	0 	
0.595 124.797 	0 	0 	
0.605 96.9251 	0 	0 	
0.615 34.327 	0 	0 	
0.625 2.0409 	0 	0 	
0.635 0.0509027 	0 	0 	
0.645 0.000681678 	0 	0 	
0.655 4.31768e-06 	0 	0 	
0.665 7.44488e-09 	0 	0 	
0.675 1.24574e-12 	0 	0 	
0.685 5.04347e-14 	0 	0 	
0.695 4.63999e-14 	0 	0 	
0.705 -3.83303e-14 	0 	0 	
0.715 -7.26261e-14 	0 	0 	
0.725 6.80873e-14 	0 	0 	
0.735 1.46259e-14 	0 	0 	
0.745 -2.16869e-14 	0 	0 	
0.755 -5.04345e-14 	0 	0 	
0.765 -9.0278e-14 	0 	0 	
0.775 -5.0435e-14 	0 	0 	
0.785 -2.48643e-13 	0 	0 	
0.795 -2.6226e-14 	0 	0 	
0.805 -1.76525e-14 	0 	0 	
0.815 -2.52174e-14 	0 	0 	
0.825 4.53912e-14 	0 	0 	
0.835 -3.37913e-14 	0 	0 	
0.845 -2.47129e-14 	0 	0 	
0.855 -2.21914e-14 	0 	0 	
0.865 1.4273e-13 	0 	0 	
0.875 6.30433e-14 	0 	0 	
0.885 1.1247e-13 	0 	0 	
0.895 -2.21911e-14 	0 	0 	
0.905 1.71478e-14 	0 	0 	
0.915 -6.85911e-14 	0 	0 	
0.925 3.02606e-14 	0 	0 	
0.935 -5.74954e-14 	0 	0 	
0.945 -2.92519e-14 	0 	0 	
0.955 -4.58956e-14 	0 	0 	
0.965 -2.52171e-14 	0 	0 	
0.975 7.31304e-14 	0 	0 	
0.985 6.25388e-14 	0 	0 	
0.995 4.33737e-14 	0 	0 	
