0.005 4.35577e-14 	0 	0 	
0.015 2.17789e-14 	0 	0 	
0.025 3.35056e-14 	0 	0 	
0.035 6.03099e-14 	0 	0 	
0.045 1.44074e-13 	0 	0 	
0.055 5.02584e-14 	0 	0 	
0.065 9.88417e-14 	0 	0 	
0.075 -5.02585e-14 	0 	0 	
0.085 -4.69076e-14 	0 	0 	
0.095 -3.35056e-14 	0 	0 	
0.105 5.0259e-15 	0 	0 	
0.115 -4.35569e-14 	0 	0 	
0.125 1.67528e-13 	0 	0 	
0.135 1.00516e-13 	0 	0 	
0.145 -4.69079e-14 	0 	0 	
0.155 -8.71146e-14 	0 	0 	
0.165 8.879e-14 	0 	0 	
0.175 4.18818e-14 	0 	0 	
0.185 -8.20885e-14 	0 	0 	
0.195 1.42399e-13 	0 	0 	
0.205 5.19339e-14 	0 	0 	
0.215 -4.35573e-14 	0 	0 	
0.225 -9.21405e-14 	0 	0 	
0.235 4.18819e-14 	0 	0 	
0.245 -5.69596e-14 	0 	0 	
0.255 2.51294e-14 	0 	0 	
0.265 -6.03104e-14 	0 	0 	
0.275 -4.18817e-14 	0 	0 	
0.285 2.17784e-14 	0 	0 	
0.295 4.6908e-14 	0 	0 	
0.305 -4.35572e-14 	0 	0 	
0.315 -3.85316e-14 	0 	0 	
0.325 -8.37662e-15 	0 	0 	
0.335 3.18302e-14 	0 	0 	
0.345 -1.17269e-14 	0 	0 	
0.355 -5.36091e-14 	0 	0 	
0.365 3.0155e-14 	0 	0 	
0.375 6.89628e-11 	0 	0 	
0.385 8.27876e-07 	0 	0 	
0.395 0.000266133 	0 	0 	
0.405 0.0176189 	0 	0 	
0.415 0.373848 	0 	0 	
0.425 3.09602 	0 	0 	
0.435 12.6787 	0 	0 	
0.445 32.0934 	0 	0 	
0.455 59.7551 	0 	0 	
0.465 91.3113 	1.24655e-30 	0 	
0.475 118.474 	0 	0 	
0.485 129.481 	0 	0 	
0.495 130.207 	0 	0 	
0.505 130.169 	0 	0 	
0.515 130.139 	0 	0 	
0.525 130.113 	0 	0 	
0.535 130.088 	0 	0 	
0.545 130.03 	0 	0 	
0.555 129.296 	0 	0 	
0.565 121.166 	0 	0 	
0.575 81.491 	0 	0 	
0.585 12.6256 	0 	0 	
0.595 0.318391 	0 	0 	
0.605 0.00289758 	0 	0 	
0.615 6.23993e-06 	0 	0 	
0.625 3.60843e-10 	0 	0 	
0.635 1.72135e-13 	0 	0 	
0.645 2.51292e-14 	0 	0 	
0.655 -5.02591e-15 	0 	0 	
0.665 -5.15149e-14 	0 	0 	
0.675 9.42345e-14 	0 	0 	
0.685 1.25635e-15 	0 	0 	
0.695 -1.10568e-13 	0 	0 	
0.705 -4.9002e-14 	0 	0 	
0.715 4.64893e-14 	0 	0 	
0.725 2.20359e-25 	0 	0 	
0.735 -2.88984e-14 	0 	0 	
0.745 2.26164e-14 	0 	0 	
0.755 -2.13598e-14 	0 	0 	
0.765 -1.63341e-14 	0 	0 	
0.775 2.51293e-14 	0 	0 	
0.785 1.2439e-13 	0 	0 	
0.795 3.89502e-14 	0 	0 	
0.805 1.75904e-14 	0 	0 	
0.815 -5.27712e-14 	0 	0 	
0.825 8.16699e-14 	0 	0 	
0.835 -1.19364e-13 	0 	0 	
0.845 -2.51292e-14 	0 	0 	
0.855 3.76936e-14 	0 	0 	
0.865 9.04648e-14 	0 	0 	
0.875 1.13081e-13 	0 	0 	
0.885 5.65408e-14 	0 	0 	
0.895 7.16184e-14 	0 	0 	
0.905 3.64373e-14 	0 	0 	
0.915 -6.2822e-15 	0 	0 	
0.925 6.91052e-14 	0 	0 	
0.935 4.39761e-14 	0 	0 	
0.945 -3.14114e-14 	0 	0 	
0.955 4.27199e-14 	0 	0 	
0.965 -7.53875e-14 	0 	0 	
0.975 8.79522e-14 	0 	0 	
0.985 -6.28229e-14 	0 	0 	
0.995 -1.75904e-14 	0 	0 	
