0.005 -5.87817e-14 	0 	0 	
0.015 2.93908e-14 	0 	0 	
0.025 -5.87817e-14 	0 	0 	
0.035 1.46953e-14 	0 	0 	
0.045 -1.6165e-13 	0 	0 	
0.055 -4.40861e-14 	0 	0 	
0.065 1.46953e-14 	0 	0 	
0.075 2.50037e-20 	0 	0 	
0.085 -4.40863e-14 	0 	0 	
0.095 1.02868e-13 	0 	0 	
0.105 -2.93908e-14 	0 	0 	
0.115 8.81727e-14 	0 	0 	
0.125 1.6165e-13 	0 	0 	
0.135 1.61649e-13 	0 	0 	
0.145 2.49822e-13 	0 	0 	
0.155 3.08604e-13 	0 	0 	
0.165 1.17563e-13 	0 	0 	
0.175 1.32259e-13 	0 	0 	
0.185 2.64518e-13 	0 	0 	
0.195 4.40862e-14 	0 	0 	
0.205 -4.40863e-14 	0 	0 	
0.215 1.46958e-14 	0 	0 	
0.225 -1.02868e-13 	0 	0 	
0.235 -1.32259e-13 	0 	0 	
0.245 -1.91041e-13 	0 	0 	
0.255 -1.17563e-13 	0 	0 	
0.265 -1.61649e-13 	0 	0 	
0.275 2.9391e-14 	0 	0 	
0.285 5.67537e-11 	0 	0 	
0.295 7.17462e-09 	0 	0 	
0.305 4.82596e-07 	0 	0 	
0.315 1.87225e-05 	0 	0 	
0.325 0.000441951 	0 	0 	
0.335 0.00658985 	0 	0 	
0.345 0.0637525 	0 	0 	
0.355 0.408911 	0 	0 	
0.365 1.78445 	0 	0 	
0.375 5.5247 	0 	0 	
0.385 12.8945 	0 	0 	
0.395 24.2787 	0 	0 	
0.405 39.1549 	0 	0 	
0.415 56.5722 	0 	0 	
0.425 75.4612 	0 	0 	
0.435 94.547 	0 	0 	
0.445 111.849 	0 	0 	
0.455 124.195 	0 	0 	
0.465 129.366 	0 	0 	
0.475 130.184 	0 	0 	
0.485 130.19 	0 	0 	
0.495 130.166 	0 	0 	
0.505 130.148 	0 	0 	
0.515 130.134 	0 	0 	
0.525 130.121 	0 	0 	
0.535 130.11 	0 	0 	
0.545 130.101 	0 	0 	
0.555 130.091 	0 	0 	
0.565 130.081 	0 	0 	
0.575 130.071 	0 	0 	
0.585 130.059 	0 	0 	
0.595 130.033 	0 	0 	
0.605 129.877 	0 	0 	
0.615 128.797 	0 	0 	
0.625 122.632 	0 	0 	
0.635 96.115 	0 	0 	
0.645 35.9772 	0 	0 	
0.655 3.85975 	0 	0 	
0.665 0.223117 	0 	0 	
0.675 0.00946822 	0 	0 	
0.685 0.000284494 	0 	0 	
0.695 5.63103e-06 	0 	0 	
0.705 6.78656e-08 	0 	0 	
0.715 4.52867e-10 	0 	0 	
0.725 1.35565e-12 	0 	0 	
0.735 -1.32259e-13 	0 	0 	
0.745 -1.32259e-13 	0 	0 	
0.755 -9.91942e-14 	0 	0 	
0.765 -1.65323e-13 	0 	0 	
0.775 -1.21237e-13 	0 	0 	
0.785 -1.32259e-13 	0 	0 	
0.795 -9.91942e-14 	0 	0 	
0.805 -7.71511e-14 	0 	0 	
0.815 1.35817e-24 	0 	0 	
0.825 -8.81726e-14 	0 	0 	
0.835 1.10216e-14 	0 	0 	
0.845 5.51079e-14 	0 	0 	
0.855 1.10216e-14 	0 	0 	
0.865 3.30648e-14 	0 	0 	
0.875 2.20431e-14 	0 	0 	
0.885 5.51078e-14 	0 	0 	
0.895 7.7151e-14 	0 	0 	
0.905 -2.20431e-14 	0 	0 	
0.915 7.71511e-14 	0 	0 	
0.925 6.61295e-14 	0 	0 	
0.935 4.40863e-14 	0 	0 	
0.945 8.81723e-14 	0 	0 	
0.955 3.30646e-14 	0 	0 	
0.965 5.51078e-14 	0 	0 	
0.975 8.81725e-14 	0 	0 	
0.985 -2.20431e-14 	0 	0 	
0.995 -2.20431e-14 	0 	0 	
