0.005 4.90141e-14 	0 	0 	
0.015 8.22944e-14 	0 	0 	
0.025 9.99288e-14 	0 	0 	
0.035 9.11115e-14 	0 	0 	
0.045 3.52689e-14 	0 	0 	
0.055 -2.35127e-14 	0 	0 	
0.065 -2.93909e-14 	0 	0 	
0.075 -2.05736e-14 	0 	0 	
0.085 -2.64518e-14 	0 	0 	
0.095 -1.17563e-14 	0 	0 	
0.105 1.17563e-14 	0 	0 	
0.115 1.17563e-14 	0 	0 	
0.125 -1.17563e-14 	0 	0 	
0.135 -5.58426e-14 	0 	0 	
0.145 -9.99289e-14 	-6.19977e-30 	0 	
0.155 -1.26381e-13 	0 	0 	
0.165 -1.55771e-13 	0 	0 	
0.175 -1.9104e-13 	0 	0 	
0.185 -1.82223e-13 	0 	0 	
0.195 -1.32259e-13 	0 	0 	
0.205 -9.99289e-14 	0 	0 	
0.215 -7.93554e-14 	0 	0 	
0.225 -4.40863e-14 	0 	0 	
0.235 -2.05736e-14 	1.23995e-29 	0 	
0.245 -4.11472e-14 	0 	0 	
0.255 -5.87817e-14 	0 	0 	
0.265 -1.17563e-14 	0 	0 	
0.275 5.58426e-14 	0 	0 	
0.285 7.93553e-14 	0 	0 	
0.295 4.99645e-14 	0 	0 	
0.305 1.17564e-14 	0 	0 	
0.315 -2.93907e-15 	0 	0 	
0.325 2.9391e-15 	0 	0 	
0.335 1.46954e-14 	0 	0 	
0.345 1.46954e-14 	0 	0 	
0.355 0.74683 	0 	0 	
0.365 5.24111 	0 	0 	
0.375 15.9752 	0 	0 	
0.385 31.3091 	0 	0 	
0.395 48.5235 	0 	0 	
0.405 66.3813 	0 	0 	
0.415 84.0815 	0 	0 	
0.425 100.575 	0 	0 	
0.435 114.358 	0 	0 	
0.445 123.761 	0 	0 	
0.455 128.422 	0 	0 	
0.465 130.069 	0 	0 	
0.475 130.547 	0 	0 	
0.485 130.545 	0 	0 	
0.495 130.328 	0 	0 	
0.505 130.055 	0 	0 	
0.515 129.818 	0 	0 	
0.525 129.757 	0 	0 	
0.535 129.94 	0 	0 	
0.545 130.291 	0 	0 	
0.555 130.613 	0 	0 	
0.565 130.677 	0 	0 	
0.575 130.511 	-3.37894e-30 	0 	
0.585 130.23 	-2.70644e-30 	0 	
0.595 129.74 	0 	0 	
0.605 129.312 	0 	0 	
0.615 129.575 	0 	0 	
0.625 129.621 	0 	0 	
0.635 127.852 	0 	0 	
0.645 119.265 	0 	0 	
0.655 91.8536 	0 	0 	
0.665 47.4426 	0 	0 	
0.675 12.3589 	0 	0 	
0.685 0.71037 	0 	0 	
0.695 4.40863e-14 	0 	0 	
0.705 5.51079e-14 	0 	0 	
0.715 5.51079e-14 	0 	0 	
0.725 6.61295e-14 	0 	0 	
0.735 7.93555e-14 	0 	0 	
0.745 4.18821e-14 	0 	0 	
0.755 -4.40863e-15 	0 	0 	
0.765 -2.86561e-14 	0 	0 	
0.775 -4.1882e-14 	0 	0 	
0.785 -5.06992e-14 	0 	0 	
0.795 -6.17208e-14 	0 	0 	
0.805 -5.06993e-14 	0 	0 	
0.815 -2.64518e-14 	-9.29967e-30 	0 	
0.825 -1.98388e-14 	0 	0 	
0.835 -1.76345e-14 	0 	0 	
0.845 4.40862e-15 	0 	0 	
0.855 2.64518e-14 	0 	0 	
0.865 1.98388e-14 	0 	0 	
0.875 -6.61295e-15 	0 	0 	
0.885 -5.06991e-14 	0 	0 	
0.895 -8.81724e-14 	0 	0 	
0.905 -7.27423e-14 	0 	0 	
0.915 -2.42475e-14 	0 	0 	
0.925 1.10216e-14 	0 	0 	
0.935 2.64518e-14 	0 	0 	
0.945 5.73122e-14 	0 	0 	
0.955 1.1242e-13 	0 	0 	
0.965 1.2785e-13 	0 	0 	
0.975 9.25811e-14 	0 	0 	
0.985 6.61294e-14 	0 	0 	
0.995 4.89007e-14 	0 	0 	
