0.005 1.75904e-13 	0 	0 	
0.015 -4.8583e-14 	0 	0 	
0.025 -4.1882e-14 	0 	0 	
0.035 -6.36606e-14 	0 	0 	
0.045 1.67528e-15 	0 	0 	
0.055 1.10568e-13 	0 	0 	
0.065 -6.36604e-14 	0 	0 	
0.075 4.18823e-14 	0 	0 	
0.085 1.03867e-13 	0 	0 	
0.095 5.69594e-14 	0 	0 	
0.105 4.6908e-14 	0 	0 	
0.115 6.7011e-14 	0 	0 	
0.125 -1.1727e-13 	0 	0 	
0.135 -3.35056e-14 	0 	0 	
0.145 1.39048e-13 	0 	0 	
0.155 -3.3505e-15 	0 	0 	
0.165 2.01033e-14 	0 	0 	
0.175 4.1882e-14 	0 	0 	
0.185 7.03621e-14 	0 	0 	
0.195 -1.84281e-14 	0 	0 	
0.205 -2.34537e-14 	0 	0 	
0.215 -2.17788e-14 	0 	0 	
0.225 -2.51291e-14 	0 	0 	
0.235 5.69595e-14 	0 	0 	
0.245 -3.85317e-14 	0 	0 	
0.255 -9.88418e-14 	0 	0 	
0.265 2.49616e-13 	0 	0 	
0.275 2.51294e-14 	0 	0 	
0.285 -6.53357e-14 	0 	0 	
0.295 -3.51809e-14 	0 	0 	
0.305 4.1882e-14 	0 	0 	
0.315 4.15486e-11 	0 	0 	
0.325 2.09769e-08 	0 	0 	
0.335 2.97537e-06 	0 	0 	
0.345 0.000186883 	0 	0 	
0.355 0.00525085 	0 	0 	
0.365 0.0751115 	0 	0 	
0.375 0.612386 	0 	0 	
0.385 2.93471 	0 	0 	
0.395 9.08837 	0 	0 	
0.405 20.3718 	0 	0 	
0.415 36.44 	0 	0 	
0.425 55.9791 	0 	0 	
0.435 77.4529 	0 	0 	
0.445 98.9502 	0 	0 	
0.455 117.259 	0 	0 	
0.465 127.703 	6.96463e-31 	0 	
0.475 130.097 	0 	0 	
0.485 130.193 	0 	0 	
0.495 130.167 	0 	0 	
0.505 130.147 	0 	0 	
0.515 130.131 	0 	0 	
0.525 130.117 	0 	0 	
0.535 130.105 	0 	0 	
0.545 130.095 	0 	0 	
0.555 130.083 	0 	0 	
0.565 130.072 	0 	0 	
0.575 130.058 	0 	0 	
0.585 130.021 	0 	0 	
0.595 129.576 	0 	0 	
0.605 125.546 	0 	0 	
0.615 110.673 	0 	0 	
0.625 53.9229 	0 	0 	
0.635 5.02932 	0 	0 	
0.645 0.175503 	0 	0 	
0.655 0.00363063 	0 	0 	
0.665 3.87673e-05 	0 	0 	
0.675 2.04987e-07 	0 	0 	
0.685 3.18745e-10 	0 	0 	
0.695 -1.38211e-14 	0 	0 	
0.705 -1.28159e-13 	0 	0 	
0.715 8.92086e-14 	0 	0 	
0.725 6.2823e-15 	0 	0 	
0.735 3.76938e-15 	0 	0 	
0.745 -3.14115e-14 	0 	0 	
0.755 4.02069e-14 	0 	0 	
0.765 2.51291e-15 	0 	0 	
0.775 4.3976e-14 	0 	0 	
0.785 6.91054e-14 	0 	0 	
0.795 4.27197e-14 	0 	0 	
0.805 1.38211e-14 	0 	0 	
0.815 1.39495e-29 	0 	0 	
0.825 -1.25645e-14 	0 	0 	
0.835 3.26683e-14 	0 	0 	
0.845 5.90537e-14 	0 	0 	
0.855 -2.38729e-14 	0 	0 	
0.865 7.28746e-14 	0 	0 	
0.875 3.76938e-14 	0 	0 	
0.885 2.51298e-15 	0 	0 	
0.895 -6.28257e-15 	0 	0 	
0.905 2.51292e-14 	0 	0 	
0.915 3.0155e-14 	0 	0 	
0.925 -2.51293e-14 	0 	0 	
0.935 -1.88467e-14 	0 	0 	
0.945 -1.75905e-14 	0 	0 	
0.955 -3.01551e-14 	0 	0 	
0.965 -2.76421e-14 	0 	0 	
0.975 3.14115e-14 	0 	0 	
0.985 -4.52324e-14 	0 	0 	
0.995 -4.27197e-14 	0 	0 	
