0.005 0.000108794 	0 	0 	
0.015 -1.98439e-05 	0 	0 	
0.025 -3.8292e-05 	0 	0 	
0.035 3.8868e-05 	0 	0 	
0.045 -3.81175e-05 	0 	0 	
0.055 3.4598e-05 	0 	0 	
0.065 -8.65335e-05 	0 	0 	
0.075 5.31905e-05 	0 	0 	
0.085 -1.13005e-05 	0 	0 	
0.095 3.7779e-05 	0 	0 	
0.105 6.33e-06 	0 	0 	
0.115 8.415e-06 	0 	0 	
0.125 0.000109246 	0 	0 	
0.135 -8.1131e-05 	0 	0 	
0.145 8.79005e-05 	0 	0 	
0.155 5.566e-06 	0 	0 	
0.165 -4.5012e-05 	0 	0 	
0.175 -7.28055e-06 	0 	0 	
0.185 -4.47905e-05 	0 	0 	
0.195 -2.6396e-05 	0 	0 	
0.205 -6.63515e-05 	0 	0 	
0.215 0.000108798 	0 	0 	
0.225 -6.4965e-06 	0 	0 	
0.235 -3.7452e-05 	0 	0 	
0.245 2.61705e-05 	0 	0 	
0.255 -3.4455e-06 	0 	0 	
0.265 6.52745e-05 	0 	0 	
0.275 2.67975e-05 	0 	0 	
0.285 1.321e-05 	0 	0 	
0.295 3.5443e-05 	0 	0 	
0.305 2.52635e-05 	0 	0 	
0.315 6.10315e-05 	0 	0 	
0.325 4.588e-06 	0 	0 	
0.335 4.4551e-05 	0 	0 	
0.345 -2.4467e-05 	0 	0 	
0.355 -3.91485e-05 	0 	0 	
0.365 1.0975e-05 	0 	0 	
0.375 -4.505e-07 	0 	0 	
0.385 9.628e-06 	0 	0 	
0.395 -8.03575e-05 	0 	0 	
0.405 2.7146e-05 	0 	0 	
0.415 -7.38285e-05 	0 	0 	
0.425 -2.317e-05 	0 	0 	
0.435 7.395e-07 	0 	0 	
0.445 -2.4444e-05 	0 	0 	
0.455 27462.5 	0 	0 	
0.465 -1.57142e+15 	0 	0 	
0.475 -6.25408e+25 	0 	0 	
0.485 -1.01565e+36 	0 	0 	
0.495 -3.26491e+45 	0 	0 	
0.505 2.4129e+47 	0 	0 	
0.515 1.02894e+45 	0 	0 	
0.525 7.06076e+32 	0 	0 	
0.535 6.04133e+22 	0 	0 	
0.545 6.47791e+11 	0 	0 	
0.555 -2.04115e-05 	0 	0 	
0.565 7.1594e-05 	0 	0 	
0.575 4.2151e-05 	0 	0 	
0.585 -4.89725e-06 	0 	0 	
0.595 2.50905e-05 	0 	0 	
0.605 3.49486e-05 	0 	0 	
0.615 1.93055e-05 	0 	0 	
0.625 -9.00015e-05 	0 	0 	
0.635 9.03365e-05 	0 	0 	
0.645 -3.67915e-05 	0 	0 	
0.655 -2.95365e-05 	0 	0 	
0.665 -2.945e-05 	0 	0 	
0.675 -5.50324e-05 	0 	0 	
0.685 1.01195e-05 	0 	0 	
0.695 4.46885e-05 	0 	0 	
0.705 1.7107e-05 	0 	0 	
0.715 -6.65616e-05 	0 	0 	
0.725 -7.83382e-05 	0 	0 	
0.735 -1.15635e-05 	0 	0 	
0.745 1.8815e-06 	0 	0 	
0.755 -4.58095e-05 	0 	0 	
0.765 7.97705e-05 	0 	0 	
0.775 -1.89145e-05 	0 	0 	
0.785 2.73955e-05 	0 	0 	
0.795 0.000103644 	0 	0 	
0.805 -5.644e-06 	0 	0 	
0.815 9.026e-06 	0 	0 	
0.825 3.59e-05 	0 	0 	
0.835 -8.13815e-05 	0 	0 	
0.845 -3.3644e-05 	0 	0 	
0.855 6.9318e-05 	0 	0 	
0.865 3.1747e-06 	0 	0 	
0.875 -7.64785e-05 	0 	0 	
0.885 -8.9981e-05 	0 	0 	
0.895 1.2279e-05 	0 	0 	
0.905 3.2265e-06 	0 	0 	
0.915 5.5923e-05 	0 	0 	
0.925 -2.3735e-06 	0 	0 	
0.935 -9.761e-06 	0 	0 	
0.945 4.8535e-06 	0 	0 	
0.955 1.1615e-05 	0 	0 	
0.965 4.95815e-05 	0 	0 	
0.975 -4.4133e-05 	0 	0 	
0.985 -4.12e-07 	0 	0 	
0.995 1.92765e-05 	0 	0 	
