0.005 4.90141e-14 	0 	0 	
0.015 8.22944e-14 	0 	0 	
0.025 9.69898e-14 	0 	0 	
0.035 8.52335e-14 	0 	0 	
0.045 3.23299e-14 	0 	0 	
0.055 -1.76345e-14 	0 	0 	
0.065 -1.76345e-14 	0 	0 	
0.075 -1.17563e-14 	0 	0 	
0.085 -1.46954e-14 	0 	0 	
0.095 5.87815e-15 	0 	0 	
0.105 2.05736e-14 	0 	0 	
0.115 2.93908e-15 	0 	0 	
0.125 -3.82081e-14 	0 	0 	
0.135 -9.99289e-14 	0 	0 	
0.145 -1.52832e-13 	-3.26305e-31 	0 	
0.155 -1.6165e-13 	0 	0 	
0.165 -1.38137e-13 	0 	0 	
0.175 -1.11685e-13 	0 	0 	
0.185 -6.17207e-14 	0 	0 	
0.195 2.05736e-14 	0 	0 	
0.205 6.46599e-14 	0 	0 	
0.215 5.87817e-14 	0 	0 	
0.225 7.64163e-14 	0 	0 	
0.235 9.699e-14 	6.52609e-31 	0 	
0.245 5.87818e-14 	0 	0 	
0.255 8.81728e-15 	0 	0 	
0.265 -2.93908e-15 	0 	0 	
0.275 0 	0 	0 	
0.285 5.87817e-15 	0 	0 	
0.295 2.93909e-14 	0 	0 	
0.305 6.17208e-14 	0 	0 	
0.315 7.34772e-14 	0 	0 	
0.325 5.29035e-14 	0 	0 	
0.335 -2.49996e-20 	0 	0 	
0.345 -5.58426e-14 	0 	0 	
0.355 -6.7599e-14 	0 	0 	
0.365 -5.29036e-14 	0 	0 	
0.375 -4.40863e-14 	0 	0 	
0.385 -3.82081e-14 	0 	0 	
0.395 -4.40863e-14 	0 	0 	
0.405 -4.11472e-14 	0 	0 	
0.415 2.93905e-15 	0 	0 	
0.425 0.565062 	0 	0 	
0.435 6.1973 	0 	0 	
0.445 22.776 	0 	0 	
0.455 48.8716 	0 	0 	
0.465 77.7402 	0 	0 	
0.475 103.435 	0 	0 	
0.485 121.253 	0 	0 	
0.495 129.376 	0 	0 	
0.505 130.823 	0 	0 	
0.515 130.436 	0 	0 	
0.525 130.845 	0 	0 	
0.535 131.794 	0 	0 	
0.545 130.157 	0 	0 	
0.555 116.252 	0 	0 	
0.565 79.3669 	0 	0 	
0.575 33.0964 	-4.57401e-31 	0 	
0.585 5.93228 	0 	0 	
0.595 6.61295e-15 	0 	0 	
0.605 -3.5269e-14 	0 	0 	
0.615 -7.49466e-14 	0 	0 	
0.625 -7.7151e-14 	0 	0 	
0.635 -6.83337e-14 	0 	0 	
0.645 -4.62906e-14 	0 	0 	
0.655 -6.61295e-15 	0 	0 	
0.665 -1.76345e-14 	0 	0 	
0.675 -3.08604e-14 	0 	0 	
0.685 2.64517e-14 	0 	0 	
0.695 6.83337e-14 	0 	0 	
0.705 4.1882e-14 	0 	0 	
0.715 2.20432e-14 	0 	0 	
0.725 4.84949e-14 	0 	0 	
0.735 7.7151e-14 	0 	0 	
0.745 5.95165e-14 	0 	0 	
0.755 1.32259e-14 	0 	0 	
0.765 -2.20431e-14 	0 	0 	
0.775 -3.5269e-14 	0 	0 	
0.785 -2.64518e-14 	0 	0 	
0.795 -2.86561e-14 	0 	0 	
0.805 -3.74733e-14 	0 	0 	
0.815 -2.20431e-14 	-4.89455e-31 	0 	
0.825 -4.40863e-15 	0 	0 	
0.835 -2.20431e-15 	0 	0 	
0.845 1.49999e-20 	0 	0 	
0.855 3.30647e-14 	0 	0 	
0.865 6.17208e-14 	0 	0 	
0.875 3.08604e-14 	0 	0 	
0.885 -1.54302e-14 	0 	0 	
0.895 -2.20431e-14 	0 	0 	
0.905 4.99984e-21 	0 	0 	
0.915 1.76345e-14 	0 	0 	
0.925 1.54302e-14 	0 	0 	
0.935 5.00011e-21 	0 	0 	
0.945 6.61295e-15 	0 	0 	
0.955 2.86561e-14 	0 	0 	
0.965 2.20432e-14 	0 	0 	
0.975 4.40863e-15 	0 	0 	
0.985 0 	0 	0 	
0.995 0 	0 	0 	
