0.005 -9.36393e-14 	0 	0 	
0.015 8.67029e-14 	0 	0 	
0.025 1.73404e-14 	0 	0 	
0.035 1.30055e-13 	0 	0 	
0.045 -4.33517e-14 	0 	0 	
0.055 1.04044e-14 	0 	0 	
0.065 4.85537e-14 	0 	0 	
0.075 -8.67029e-14 	0 	0 	
0.085 -1.43927e-13 	7.70077e-30 	0 	
0.095 -2.77451e-14 	0 	0 	
0.105 -1.59534e-13 	0 	0 	
0.115 -5.89581e-14 	-3.85039e-30 	0 	
0.125 2.60109e-14 	3.85039e-30 	0 	
0.135 -3.81491e-14 	0 	0 	
0.145 5.72241e-14 	0 	0 	
0.155 4.16172e-14 	0 	0 	
0.165 -2.08087e-14 	0 	0 	
0.175 1.82076e-13 	0 	0 	
0.185 -5.54898e-14 	0 	0 	
0.195 -6.41602e-14 	0 	0 	
0.205 -2.60109e-14 	0 	0 	
0.215 -5.0288e-14 	0 	0 	
0.225 -3.46812e-14 	0 	0 	
0.235 3.64152e-14 	0 	0 	
0.245 -5.20233e-15 	0 	0 	
0.255 3.46787e-15 	0 	0 	
0.265 -1.04044e-13 	0 	0 	
0.275 -1.21384e-13 	0 	0 	
0.285 1.04044e-14 	0 	0 	
0.295 -2.20226e-13 	0 	0 	
0.305 6.93624e-14 	0 	0 	
0.315 -2.01151e-13 	0 	0 	
0.325 -1.73406e-14 	0 	0 	
0.335 -3.64152e-14 	0 	0 	
0.345 1.90745e-14 	0 	0 	
0.355 -5.3756e-14 	0 	0 	
0.365 -3.46825e-15 	0 	0 	
0.375 -5.20221e-14 	0 	0 	
0.385 -1.04044e-14 	0 	0 	
0.395 -3.46813e-14 	0 	0 	
0.405 5.89581e-14 	0 	0 	
0.415 5.85894e-06 	0 	0 	
0.425 0.00522454 	0 	0 	
0.435 0.30987 	0 	0 	
0.445 4.02278 	0 	0 	
0.455 19.1072 	0 	0 	
0.465 49.3774 	0 	0 	
0.475 89.2733 	0 	0 	
0.485 122.539 	0 	0 	
0.495 130.172 	0 	0 	
0.505 130.179 	0 	0 	
0.515 130.135 	0 	0 	
0.525 130.083 	0 	0 	
0.535 129.816 	0 	0 	
0.545 123.9 	0 	0 	
0.555 74.1201 	0 	0 	
0.565 6.50398 	0 	0 	
0.575 0.0562747 	0 	0 	
0.585 3.78977e-05 	0 	0 	
0.595 9.75407e-14 	0 	0 	
0.605 -2.21095e-14 	0 	0 	
0.615 -4.81202e-14 	0 	0 	
0.625 -2.60105e-14 	0 	0 	
0.635 -4.94206e-14 	0 	0 	
0.645 1.6907e-14 	0 	0 	
0.655 -1.52164e-13 	0 	0 	
0.665 1.1965e-13 	0 	0 	
0.675 -5.85247e-14 	0 	0 	
0.685 1.46961e-13 	0 	0 	
0.695 -1.00142e-13 	0 	0 	
0.705 5.07213e-14 	0 	0 	
0.715 4.03167e-14 	0 	0 	
0.725 7.80325e-14 	0 	0 	
0.735 -6.11254e-14 	0 	0 	
0.745 2.60111e-14 	0 	0 	
0.755 4.94209e-14 	0 	0 	
0.765 -2.73114e-14 	0 	0 	
0.775 1.30054e-14 	0 	0 	
0.785 2.99127e-14 	0 	0 	
0.795 4.68198e-14 	0 	0 	
0.805 5.46231e-14 	0 	0 	
0.815 4.29178e-14 	0 	0 	
0.825 3.90165e-14 	0 	0 	
0.835 -4.40727e-25 	0 	0 	
0.845 5.72239e-14 	0 	0 	
0.855 -2.34097e-14 	0 	0 	
0.865 3.38142e-14 	0 	0 	
0.875 -7.80326e-14 	0 	0 	
0.885 5.59236e-14 	0 	0 	
0.895 7.15298e-14 	0 	0 	
0.905 9.49402e-14 	0 	0 	
0.915 -9.49398e-14 	0 	0 	
0.925 -7.80325e-14 	0 	0 	
0.935 -7.8033e-15 	0 	0 	
0.945 5.98249e-14 	0 	0 	
0.955 -6.37268e-14 	0 	0 	
0.965 -5.07214e-14 	0 	0 	
0.975 1.95082e-14 	0 	0 	
0.985 -1.05344e-13 	0 	0 	
0.995 -2.6011e-14 	0 	0 	
