0.005 4.18818e-14 	0 	0 	
0.015 -7.37123e-14 	0 	0 	
0.025 3.35056e-14 	0 	0 	
0.035 -1.491e-13 	0 	0 	
0.045 2.01031e-14 	0 	0 	
0.055 1.67535e-15 	0 	0 	
0.065 -2.01033e-14 	0 	0 	
0.075 4.1882e-14 	0 	0 	
0.085 1.34022e-14 	0 	0 	
0.095 -1.50775e-14 	0 	0 	
0.105 -1.00517e-13 	0 	0 	
0.115 6.70123e-15 	0 	0 	
0.125 -3.35054e-14 	0 	0 	
0.135 1.02192e-13 	0 	0 	
0.145 1.84283e-14 	0 	0 	
0.155 3.35055e-14 	0 	0 	
0.165 6.03103e-14 	0 	0 	
0.175 3.35056e-14 	0 	0 	
0.185 3.68563e-14 	0 	0 	
0.195 1.00517e-13 	0 	0 	
0.205 1.84281e-13 	0 	0 	
0.215 -6.03102e-14 	0 	0 	
0.225 -1.25646e-13 	0 	0 	
0.235 3.35056e-14 	0 	0 	
0.245 5.69595e-14 	0 	0 	
0.255 4.35573e-14 	0 	0 	
0.265 6.19854e-14 	0 	0 	
0.275 -3.35055e-14 	0 	0 	
0.285 1.45749e-13 	0 	0 	
0.295 9.04652e-14 	0 	0 	
0.305 1.10569e-13 	0 	0 	
0.315 -3.0155e-14 	0 	0 	
0.325 3.93691e-13 	0 	0 	
0.335 1.00079e-09 	0 	0 	
0.345 4.58844e-07 	0 	0 	
0.355 5.28542e-05 	0 	0 	
0.365 0.00225428 	0 	0 	
0.375 0.0463704 	0 	0 	
0.385 0.473954 	0 	0 	
0.395 2.63773 	0 	0 	
0.405 9.00449 	0 	0 	
0.415 21.2858 	0 	0 	
0.425 39.1139 	0 	0 	
0.435 60.8953 	0 	0 	
0.445 84.5806 	0 	0 	
0.455 107.244 	0 	0 	
0.465 123.754 	6.88622e-31 	0 	
0.475 129.682 	0 	0 	
0.485 130.202 	0 	0 	
0.495 130.176 	0 	0 	
0.505 130.152 	0 	0 	
0.515 130.133 	0 	0 	
0.525 130.117 	0 	0 	
0.535 130.104 	0 	0 	
0.545 130.09 	0 	0 	
0.555 130.077 	0 	0 	
0.565 130.061 	0 	0 	
0.575 130.006 	0 	0 	
0.585 129.638 	0 	0 	
0.595 124.57 	0 	0 	
0.605 99.7145 	0 	0 	
0.615 34.28 	0 	0 	
0.625 2.05422 	0 	0 	
0.635 0.0517548 	0 	0 	
0.645 0.000766644 	0 	0 	
0.655 4.69858e-06 	0 	0 	
0.665 7.74433e-09 	0 	0 	
0.675 2.12971e-12 	0 	0 	
0.685 -6.2822e-15 	0 	0 	
0.695 3.64371e-14 	0 	0 	
0.705 -2.63857e-14 	0 	0 	
0.715 -5.02585e-14 	0 	0 	
0.725 5.65406e-14 	0 	0 	
0.735 4.9002e-14 	0 	0 	
0.745 -7.53859e-15 	0 	0 	
0.755 3.01548e-14 	0 	0 	
0.765 7.28746e-14 	0 	0 	
0.775 6.91055e-14 	0 	0 	
0.785 8.41829e-14 	0 	0 	
0.795 -2.5129e-14 	0 	0 	
0.805 -8.54393e-14 	0 	0 	
0.815 -6.40795e-14 	0 	0 	
0.825 3.76937e-14 	0 	0 	
0.835 -9.04653e-14 	0 	0 	
0.845 1.50776e-14 	0 	0 	
0.855 1.13081e-13 	0 	0 	
0.865 4.77456e-14 	0 	0 	
0.875 1.06799e-13 	0 	0 	
0.885 4.40718e-25 	0 	0 	
0.895 -3.14115e-14 	0 	0 	
0.905 2.88986e-14 	0 	0 	
0.915 2.76421e-14 	0 	0 	
0.925 -2.51295e-14 	0 	0 	
0.935 -9.42345e-14 	0 	0 	
0.945 1.75905e-14 	0 	0 	
0.955 -1.55801e-13 	0 	0 	
0.965 -2.88986e-14 	0 	0 	
0.975 -1.25646e-13 	0 	0 	
0.985 -1.38211e-14 	0 	0 	
0.995 -1.75905e-14 	0 	0 	
