0.005 273.15 303974
0.015 273.152 303984
0.025 273.148 303966
0.035 273.149 303971
0.045 273.15 303974
0.055 273.151 303978
0.065 273.152 303982
0.075 273.15 303973
0.085 273.153 303986
0.095 273.15 303974
0.105 273.152 303985
0.115 273.148 303965
0.125 273.153 303988
0.135 273.149 303972
0.145 273.15 303974
0.155 273.152 303985
0.165 273.151 303979
0.175 273.15 303977
0.185 273.149 303971
0.195 273.15 303972
0.205 273.147 303961
0.215 273.147 303963
0.225 273.154 303990
0.235 273.149 303971
0.245 273.15 303973
0.255 273.151 303978
0.265 273.149 303968
0.275 273.153 303988
0.285 273.151 303980
0.295 273.148 303968
0.305 273.151 303980
0.315 273.149 303975
0.325 273.15 303973
0.335 273.15 303976
0.345 273.153 303986
0.355 273.148 303966
0.365 273.15 303974
0.375 273.15 303976
0.385 273.151 303979
0.395 273.15 303972
0.405 273.153 303987
0.415 273.149 303968
0.425 273.153 303986
0.435 273.148 303968
0.445 0.001 2520.93
0.455 8762.38 8.76273e+06
0.465 0.001 2876.99
0.475 0.001 2876.99
0.485 0.001 2876.99
0.495 0.001 2876.99
0.505 3762.38 3.76417e+06
0.515 0.001 2876.99
0.525 0.001 2876.99
0.535 0.001 2876.99
0.545 0.001 2876.99
0.555 0.001 2876.99
0.565 273.151 101326
0.575 273.152 101328
0.585 273.15 101326
0.595 273.15 101325
0.605 273.15 101325
0.615 273.152 101328
0.625 273.147 101321
0.635 273.147 101321
0.645 273.152 101327
0.655 273.148 101323
0.665 273.151 101327
0.675 273.15 101325
0.685 273.147 101321
0.695 273.153 101329
0.705 273.15 101325
0.715 273.154 101330
0.725 273.147 101321
0.735 273.149 101324
0.745 273.147 101321
0.755 273.145 101319
0.765 273.148 101322
0.775 273.15 101325
0.785 273.149 101323
0.795 273.151 101326
0.805 273.153 101328
0.815 273.15 101325
0.825 273.155 101331
0.835 273.154 101330
0.845 273.148 101322
0.855 273.149 101324
0.865 273.152 101327
0.875 273.153 101329
0.885 273.145 101319
0.895 273.15 101326
0.905 273.147 101321
0.915 273.151 101326
0.925 273.151 101326
0.935 273.148 101322
0.945 273.149 101324
0.955 273.15 101325
0.965 273.149 101324
0.975 273.153 101329
0.985 273.148 101322
0.995 273.15 101325
