0.005 4.22494e-14 	0 	0 	
0.015 6.7599e-14 	0 	0 	
0.025 -5.49242e-14 	0 	0 	
0.035 -1.14073e-13 	0 	0 	
0.045 -6.7599e-14 	0 	0 	
0.055 7.18239e-14 	0 	0 	
0.065 -4.22494e-15 	-1.40719e-30 	0 	
0.075 -4.22494e-14 	0 	0 	
0.085 -1.01398e-13 	0 	0 	
0.095 -7.60489e-14 	0 	0 	
0.105 -1.18298e-13 	0 	0 	
0.115 1.26748e-14 	0 	0 	
0.125 1.26748e-13 	0 	0 	
0.135 5.06992e-14 	0 	0 	
0.145 -2.95746e-14 	0 	0 	
0.155 -3.80244e-14 	0 	0 	
0.165 8.44987e-14 	0 	0 	
0.175 3.37995e-14 	0 	0 	
0.185 -1.26748e-13 	0 	0 	
0.195 -1.26748e-14 	0 	0 	
0.205 7.60489e-14 	0 	0 	
0.215 9.29486e-14 	0 	0 	
0.225 -2.95746e-14 	0 	0 	
0.235 -1.26748e-13 	0 	0 	
0.245 1.05623e-13 	0 	0 	
0.255 -6.33741e-14 	0 	0 	
0.265 3.80244e-14 	0 	0 	
0.275 8.44987e-15 	0 	0 	
0.285 8.44988e-15 	0 	0 	
0.295 1.68998e-14 	0 	0 	
0.305 6.33741e-14 	0 	0 	
0.315 -4.64743e-14 	0 	0 	
0.325 4.64743e-14 	0 	0 	
0.335 1.05623e-13 	0 	0 	
0.345 5.91491e-14 	0 	0 	
0.355 -1.26748e-14 	0 	0 	
0.365 8.44988e-15 	0 	0 	
0.375 -6.33741e-14 	0 	0 	
0.385 1.14073e-13 	0 	0 	
0.395 -1.26748e-13 	0 	0 	
0.405 4.22494e-14 	0 	0 	
0.415 2.11247e-14 	0 	0 	
0.425 1.01399e-13 	0 	0 	
0.435 5.91491e-14 	0 	0 	
0.445 6.7599e-14 	0 	0 	
0.455 -5.06992e-14 	0 	0 	
0.465 0.241468 	0 	0 	
0.475 8.8358 	0 	0 	
0.485 50.7579 	0 	0 	
0.495 116.454 	0 	0 	
0.505 130.178 	0 	0 	
0.515 128.035 	0 	0 	
0.525 87.4835 	0 	0 	
0.535 5.26053 	0 	0 	
0.545 -2.21809e-14 	0 	0 	
0.555 2.85183e-14 	0 	0 	
0.565 8.23864e-14 	0 	0 	
0.575 -4.75304e-14 	0 	0 	
0.585 5.70367e-14 	0 	0 	
0.595 1.26747e-14 	0 	0 	
0.605 -7.60486e-14 	0 	0 	
0.615 6.65429e-14 	0 	0 	
0.625 3.48558e-14 	0 	0 	
0.635 6.33737e-15 	0 	0 	
0.645 6.97115e-14 	0 	0 	
0.655 -1.26746e-14 	0 	0 	
0.665 -9.5061e-15 	0 	0 	
0.675 -1.52098e-13 	0 	0 	
0.685 1.23579e-13 	0 	0 	
0.695 2.85181e-14 	0 	0 	
0.705 -4.43619e-14 	0 	0 	
0.715 5.38677e-14 	0 	0 	
0.725 1.20411e-13 	7.03593e-31 	0 	
0.735 -4.11934e-14 	0 	0 	
0.745 4.75305e-14 	0 	0 	
0.755 -5.38677e-14 	0 	0 	
0.765 -1.01398e-13 	-3.51797e-30 	0 	
0.775 -5.70366e-14 	0 	0 	
0.785 -1.20411e-13 	0 	0 	
0.795 1.36254e-13 	0 	0 	
0.805 -4.43621e-14 	0 	0 	
0.815 1.2041e-13 	1.75898e-30 	0 	
0.825 -4.43619e-14 	5.27695e-31 	0 	
0.835 -4.75305e-14 	0 	0 	
0.845 -4.11934e-14 	0 	0 	
0.855 9.18921e-14 	0 	0 	
0.865 -5.06991e-14 	0 	0 	
0.875 -6.65428e-14 	0 	0 	
0.885 0 	0 	0 	
0.895 -2.53495e-14 	0 	0 	
0.905 -7.6049e-14 	0 	0 	
0.915 3.1687e-15 	0 	0 	
0.925 6.0205e-14 	0 	0 	
0.935 3.16883e-15 	0 	0 	
0.945 -3.16869e-14 	0 	0 	
0.955 -6.33738e-14 	0 	0 	
0.965 -1.04567e-13 	0 	0 	
0.975 -2.53496e-14 	0 	0 	
0.985 -1.33086e-13 	0 	0 	
0.995 3.80247e-14 	0 	0 	
