0.005 -1.46954e-14 	0 	0 	
0.015 5.87817e-14 	0 	0 	
0.025 2.93908e-14 	0 	0 	
0.035 -4.40862e-14 	0 	0 	
0.045 1.46955e-14 	0 	0 	
0.055 2.93907e-14 	0 	0 	
0.065 5.8782e-14 	0 	0 	
0.075 2.9391e-14 	0 	0 	
0.085 -4.40862e-14 	0 	0 	
0.095 -8.81723e-14 	0 	0 	
0.105 -4.40861e-14 	0 	0 	
0.115 -1.75002e-19 	0 	0 	
0.125 4.40863e-14 	0 	0 	
0.135 1.46955e-14 	0 	0 	
0.145 1.17563e-13 	0 	0 	
0.155 1.46954e-13 	0 	0 	
0.165 7.3477e-14 	0 	0 	
0.175 1.17563e-13 	0 	0 	
0.185 5.87816e-14 	0 	0 	
0.195 -8.81725e-14 	0 	0 	
0.205 -8.81722e-14 	0 	0 	
0.215 -5.8782e-14 	0 	0 	
0.225 -2.93909e-14 	0 	0 	
0.235 9.99982e-20 	0 	0 	
0.245 5.87816e-14 	0 	0 	
0.255 -8.81725e-14 	0 	0 	
0.265 -7.34771e-14 	0 	0 	
0.275 -1.6165e-13 	0 	0 	
0.285 -1.46954e-13 	0 	0 	
0.295 -7.34769e-14 	0 	0 	
0.305 -4.40865e-14 	0 	0 	
0.315 7.3477e-14 	0 	0 	
0.325 4.40863e-14 	0 	0 	
0.335 1.76346e-13 	0 	0 	
0.345 -2.93908e-14 	0 	0 	
0.355 5.87819e-14 	0 	0 	
0.365 1.49993e-19 	0 	0 	
0.375 4.40862e-14 	0 	0 	
0.385 -1.02868e-13 	0 	0 	
0.395 -1.46954e-14 	0 	0 	
0.405 3.15544e-30 	0 	0 	
0.415 5.87817e-14 	0 	0 	
0.425 7.1957e-06 	0 	0 	
0.435 0.00466703 	0 	0 	
0.445 0.286043 	0 	0 	
0.455 4.08164 	0 	0 	
0.465 21.0927 	0 	0 	
0.475 57.3946 	0 	0 	
0.485 103.938 	0 	0 	
0.495 129.079 	0 	0 	
0.505 130.195 	0 	0 	
0.515 130.109 	0 	0 	
0.525 129.03 	0 	0 	
0.535 115.32 	0 	0 	
0.545 52.5989 	0 	0 	
0.555 3.38072 	0 	0 	
0.565 0.0348068 	0 	0 	
0.575 3.73059e-05 	0 	0 	
0.585 -5.51077e-14 	0 	0 	
0.595 -3.30648e-14 	0 	0 	
0.605 4.40863e-14 	0 	0 	
0.615 6.61295e-14 	0 	0 	
0.625 8.81725e-14 	0 	0 	
0.635 5.5108e-14 	0 	0 	
0.645 -3.30647e-14 	0 	0 	
0.655 -3.30647e-14 	0 	0 	
0.665 -2.20432e-14 	0 	0 	
0.675 3.30647e-14 	0 	0 	
0.685 4.4051e-29 	0 	0 	
0.695 6.61292e-14 	0 	0 	
0.705 -2.20432e-14 	0 	0 	
0.715 -3.30646e-14 	0 	0 	
0.725 -4.40862e-14 	0 	0 	
0.735 -1.54302e-13 	0 	0 	
0.745 4.40863e-14 	0 	0 	
0.755 4.40863e-14 	0 	0 	
0.765 -3.30647e-14 	0 	0 	
0.775 -4.40862e-14 	0 	0 	
0.785 -2.20431e-14 	0 	0 	
0.795 -4.40863e-14 	0 	0 	
0.805 -7.71511e-14 	0 	0 	
0.815 1.10216e-14 	0 	0 	
0.825 2.20432e-14 	0 	0 	
0.835 -1.10217e-14 	0 	0 	
0.845 5.51078e-14 	0 	0 	
0.855 9.91943e-14 	0 	0 	
0.865 4.40862e-14 	0 	0 	
0.875 -1.35825e-24 	0 	0 	
0.885 4.40862e-14 	0 	0 	
0.895 -1.10215e-14 	0 	0 	
0.905 -1.10216e-14 	0 	0 	
0.915 -1.10216e-13 	0 	0 	
0.925 -7.7151e-14 	0 	0 	
0.935 1.10215e-14 	0 	0 	
0.945 6.61295e-14 	0 	0 	
0.955 0 	0 	0 	
0.965 9.91942e-14 	0 	0 	
0.975 4.40863e-14 	0 	0 	
0.985 1.10216e-14 	0 	0 	
0.995 -5.00041e-20 	0 	0 	
