0.005 3.233e-14 	0 	0 	
0.015 -2.42475e-14 	0 	0 	
0.025 8.08249e-15 	0 	0 	
0.035 -7.27425e-14 	0 	0 	
0.045 -1.73215e-22 	0 	0 	
0.055 -8.0825e-14 	0 	0 	
0.065 -8.89074e-14 	0 	0 	
0.075 1.6165e-13 	0 	0 	
0.085 -8.08245e-15 	0 	0 	
0.095 -5.65775e-14 	0 	0 	
0.105 6.46596e-14 	0 	0 	
0.115 1.2932e-13 	0 	0 	
0.125 4.04125e-14 	0 	0 	
0.135 -1.45484e-13 	0 	0 	
0.145 9.699e-14 	0 	0 	
0.155 3.233e-14 	0 	0 	
0.165 4.04125e-14 	0 	0 	
0.175 -1.21453e-19 	0 	0 	
0.185 -7.27424e-14 	0 	0 	
0.195 8.89075e-14 	0 	0 	
0.205 9.69896e-14 	0 	0 	
0.215 -8.08249e-15 	0 	0 	
0.225 3.23296e-14 	0 	0 	
0.235 -7.2742e-14 	0 	0 	
0.245 1.6165e-14 	0 	0 	
0.255 -6.46596e-14 	0 	0 	
0.265 -2.42476e-14 	0 	0 	
0.275 -8.08249e-15 	0 	0 	
0.285 -4.8495e-14 	0 	0 	
0.295 -6.466e-14 	0 	0 	
0.305 -8.89075e-14 	0 	0 	
0.315 8.08249e-15 	3.81368e-30 	0 	
0.325 -8.08256e-15 	0 	0 	
0.335 -4.84946e-14 	-3.81368e-30 	0 	
0.345 1.6165e-14 	0 	0 	
0.355 -9.69901e-14 	-1.90684e-30 	0 	
0.365 -1.61651e-14 	7.62737e-30 	0 	
0.375 5.98104e-13 	0 	0 	
0.385 6.07928e-08 	0 	0 	
0.395 4.5771e-05 	0 	0 	
0.405 0.00481859 	0 	0 	
0.415 0.147086 	0 	0 	
0.425 1.66157 	0 	0 	
0.435 8.59166 	0 	0 	
0.445 25.2765 	0 	0 	
0.455 51.7109 	0 	0 	
0.465 83.9527 	-2.31994e-30 	0 	
0.475 114.119 	0 	0 	
0.485 128.839 	0 	0 	
0.495 130.212 	-5.08434e-31 	0 	
0.505 130.174 	-5.09107e-31 	0 	
0.515 130.141 	0 	0 	
0.525 130.113 	0 	0 	
0.535 130.08 	0 	0 	
0.545 129.923 	0 	0 	
0.555 127.935 	0 	0 	
0.565 111.837 	0 	0 	
0.575 49.4481 	0 	0 	
0.585 3.46618 	0 	0 	
0.595 0.0637469 	0 	0 	
0.605 0.000400677 	0 	0 	
0.615 3.82893e-07 	0 	0 	
0.625 2.8612e-12 	0 	0 	
0.635 -1.21237e-14 	0 	0 	
0.645 -1.21237e-14 	0 	0 	
0.655 2.42476e-14 	0 	0 	
0.665 -3.88369e-20 	0 	0 	
0.675 -6.06188e-15 	0 	0 	
0.685 -2.42475e-14 	0 	0 	
0.695 -6.66807e-14 	0 	0 	
0.705 1.81855e-14 	0 	0 	
0.715 4.84949e-14 	0 	0 	
0.725 -8.81442e-25 	0 	0 	
0.735 6.06187e-14 	0 	0 	
0.745 -3.03093e-14 	0 	0 	
0.755 6.66806e-14 	0 	0 	
0.765 5.45568e-14 	0 	0 	
0.775 -3.63712e-14 	0 	0 	
0.785 3.63712e-14 	0 	0 	
0.795 -1.21237e-14 	0 	0 	
0.805 -4.03798e-30 	0 	0 	
0.815 8.81442e-25 	0 	0 	
0.825 -6.06188e-14 	0 	0 	
0.835 -1.15176e-13 	0 	0 	
0.845 6.66804e-14 	0 	0 	
0.855 -6.06186e-15 	0 	0 	
0.865 1.21237e-13 	0 	0 	
0.875 -3.03094e-14 	0 	0 	
0.885 1.15176e-13 	0 	0 	
0.895 -7.27421e-14 	0 	0 	
0.905 1.81856e-14 	0 	0 	
0.915 -4.2433e-14 	0 	0 	
0.925 -3.63714e-14 	0 	0 	
0.935 7.88044e-14 	0 	0 	
0.945 -3.63711e-14 	0 	0 	
0.955 -6.06186e-15 	0 	0 	
0.965 4.84949e-14 	0 	0 	
0.975 6.06188e-15 	0 	0 	
0.985 -3.63712e-14 	0 	0 	
0.995 -6.06186e-14 	0 	0 	
