0.005 4.90141e-14 	0 	0 	
0.015 8.22944e-14 	0 	0 	
0.025 9.99288e-14 	0 	0 	
0.035 1.14624e-13 	0 	0 	
0.045 1.20503e-13 	0 	0 	
0.055 1.11685e-13 	0 	0 	
0.065 7.0538e-14 	0 	0 	
0.075 -2.64517e-14 	0 	0 	
0.085 -9.40507e-14 	0 	0 	
0.095 -7.64162e-14 	0 	0 	
0.105 -6.75989e-14 	0 	0 	
0.115 -9.69896e-14 	0 	0 	
0.125 -1.32259e-13 	0 	0 	
0.135 -1.91041e-13 	0 	0 	
0.145 -2.49822e-13 	-1.63152e-30 	0 	
0.155 -2.43944e-13 	1.30522e-30 	0 	
0.165 -1.85162e-13 	0 	0 	
0.175 -1.38137e-13 	0 	0 	
0.185 -8.81725e-14 	0 	0 	
0.195 -5.87815e-15 	0 	0 	
0.205 4.99645e-14 	0 	0 	
0.215 5.58427e-14 	0 	0 	
0.225 8.22944e-14 	1.63152e-31 	0 	
0.235 1.11685e-13 	7.505e-30 	0 	
0.245 8.81726e-14 	6.52609e-31 	0 	
0.255 5.58427e-14 	0 	0 	
0.265 4.40863e-14 	0 	0 	
0.275 3.5269e-14 	0 	0 	
0.285 4.40863e-14 	0 	0 	
0.295 6.46599e-14 	0 	0 	
0.305 7.05381e-14 	0 	0 	
0.315 7.64163e-14 	0 	0 	
0.325 7.05381e-14 	0 	0 	
0.335 3.82082e-14 	0 	0 	
0.345 -1.76345e-14 	0 	0 	
0.355 -7.64162e-14 	0 	0 	
0.365 -1.11685e-13 	0 	0 	
0.375 -1.14624e-13 	0 	0 	
0.385 -1.02868e-13 	0 	0 	
0.395 1.03062 	0 	0 	
0.405 7.20125 	0 	0 	
0.415 21.89 	0 	0 	
0.425 42.7632 	0 	0 	
0.435 65.7757 	0 	0 	
0.445 88.3016 	0 	0 	
0.455 107.711 	0 	0 	
0.465 120.884 	0 	0 	
0.475 127.099 	0 	0 	
0.485 129.491 	0 	0 	
0.495 130.521 	0 	0 	
0.505 130.778 	0 	0 	
0.515 130.656 	0 	0 	
0.525 130.178 	0 	0 	
0.535 129.487 	0 	0 	
0.545 129.079 	0 	0 	
0.555 129.306 	0 	0 	
0.565 130.013 	0 	0 	
0.575 130.424 	-2.36453e-30 	0 	
0.585 129.005 	-1.1839e-30 	0 	
0.595 119.488 	0 	0 	
0.605 90.0888 	0 	0 	
0.615 44.7976 	0 	0 	
0.625 10.8219 	0 	0 	
0.635 0.420415 	0 	0 	
0.645 -7.49467e-14 	0 	0 	
0.655 -1.98388e-14 	0 	0 	
0.665 -1.10216e-14 	0 	0 	
0.675 -1.76345e-14 	0 	0 	
0.685 6.61295e-15 	0 	0 	
0.695 4.40863e-14 	0 	0 	
0.705 4.62906e-14 	0 	0 	
0.715 3.96777e-14 	0 	0 	
0.725 7.49467e-14 	0 	0 	
0.735 1.10216e-13 	0 	0 	
0.745 8.59683e-14 	0 	0 	
0.755 4.1882e-14 	0 	0 	
0.765 3.08604e-14 	0 	0 	
0.775 2.64518e-14 	0 	0 	
0.785 -4.99978e-21 	0 	0 	
0.795 -1.10216e-14 	0 	0 	
0.805 8.81725e-15 	0 	0 	
0.815 2.42475e-14 	-6.36293e-30 	0 	
0.825 1.98389e-14 	0 	0 	
0.835 6.61295e-15 	0 	0 	
0.845 0 	0 	0 	
0.855 -8.81725e-15 	0 	0 	
0.865 -4.18819e-14 	0 	0 	
0.875 -7.0538e-14 	0 	0 	
0.885 -6.17208e-14 	0 	0 	
0.895 -5.95165e-14 	0 	0 	
0.905 -6.39251e-14 	0 	0 	
0.915 -3.96777e-14 	0 	0 	
0.925 -2.20432e-14 	0 	0 	
0.935 -2.20432e-14 	0 	0 	
0.945 -8.81728e-15 	0 	0 	
0.955 3.08604e-14 	0 	0 	
0.965 8.15596e-14 	0 	0 	
0.975 1.08011e-13 	0 	0 	
0.985 9.69899e-14 	0 	0 	
0.995 6.50767e-14 	0 	0 	
