0.005 7.0538e-14 	0 	0 	
0.015 2.11614e-13 	0 	0 	
0.025 1.41076e-13 	0 	0 	
0.035 1.05807e-13 	0 	0 	
0.045 -6.5798e-24 	0 	0 	
0.055 7.0538e-14 	0 	0 	
0.065 1.76345e-13 	0 	0 	
0.075 3.52689e-14 	0 	0 	
0.085 5.265e-24 	0 	0 	
0.095 -3.5269e-14 	0 	0 	
0.105 -1.41076e-13 	0 	0 	
0.115 1.41076e-13 	0 	0 	
0.125 2.63302e-24 	-4.40511e-30 	0 	
0.135 -1.05807e-13 	0 	0 	
0.145 -3.94874e-24 	0 	0 	
0.155 -3.5269e-14 	0 	0 	
0.165 -7.0538e-14 	0 	0 	
0.175 -7.0538e-14 	-1.00339e-29 	0 	
0.185 -1.05807e-13 	-8.81022e-30 	0 	
0.195 7.0538e-14 	0 	0 	
0.205 -3.5269e-14 	0 	0 	
0.215 -7.0538e-14 	0 	0 	
0.225 -2.46883e-13 	0 	0 	
0.235 -1.41076e-13 	0 	0 	
0.245 -1.05807e-13 	0 	0 	
0.255 -3.94347e-24 	-1.05233e-29 	0 	
0.265 1.41076e-13 	-9.78913e-30 	0 	
0.275 1.05807e-13 	0 	0 	
0.285 -1.05807e-13 	0 	0 	
0.295 1.83399e-12 	0 	0 	
0.305 1.64177e-09 	0 	0 	
0.315 3.51339e-07 	0 	0 	
0.325 2.8065e-05 	0 	0 	
0.335 0.00102201 	0 	0 	
0.345 0.0190574 	0 	0 	
0.355 0.196131 	-8.81453e-30 	0 	
0.365 1.18266 	0 	0 	
0.375 4.48315 	0 	0 	
0.385 11.7298 	0 	0 	
0.395 23.4306 	0 	0 	
0.405 38.8976 	-3.56786e-30 	0 	
0.415 56.9813 	1.45102e-30 	0 	
0.425 76.5 	-6.17113e-31 	0 	
0.435 96.1119 	3.28556e-31 	0 	
0.445 113.665 	-3.48059e-31 	0 	
0.455 125.555 	9.06411e-31 	0 	
0.465 -1.47825e+06 	-6.21396e-32 	0 	
0.475 -6.95646e+16 	0 	0 	
0.485 -3.75394e+31 	2.48123e-51 	0 	
0.495 -3.26017e+48 	-1.22042e-67 	0 	
0.505 -4.01267e+52 	5.12175e-75 	0 	
0.515 -1.53716e+57 	0 	0 	
0.525 5.66517e+59 	0 	0 	
0.535 -3.01884e+62 	0 	0 	
0.545 5.65592e+63 	0 	0 	
0.555 -8.49203e+59 	0 	0 	
0.565 -1.73451e+64 	0 	0 	
0.575 -6.68263e+66 	0 	0 	
0.585 3.88313e+65 	0 	0 	
0.595 6.72221e+61 	0 	0 	
0.605 1.07764e+57 	0 	0 	
0.615 2.7683e+49 	0 	0 	
0.625 1.06513e+45 	0 	0 	
0.635 2.26832e+37 	0 	0 	
0.645 2.5082e+23 	0 	0 	
0.655 5.73773e+17 	0 	0 	
0.665 3.28281e+11 	0 	0 	
0.675 -1.81614e+11 	0 	0 	
0.685 4.95815e-06 	0 	0 	
0.695 1.70373e-08 	0 	0 	
0.705 1.55801e-11 	0 	0 	
0.715 -2.64517e-14 	0 	0 	
0.725 1.32259e-13 	0 	0 	
0.735 2.64518e-14 	0 	0 	
0.745 -3.91881e-24 	0 	0 	
0.755 5.29035e-14 	0 	0 	
0.765 2.64515e-14 	0 	0 	
0.775 2.93907e-24 	0 	0 	
0.785 2.64518e-14 	0 	0 	
0.795 -2.64517e-14 	0 	0 	
0.805 1.5871e-13 	0 	0 	
0.815 -5.29035e-14 	0 	0 	
0.825 1.32259e-13 	0 	0 	
0.835 1.85162e-13 	0 	0 	
0.845 5.8676e-24 	0 	0 	
0.855 1.05807e-13 	0 	0 	
0.865 2.64518e-13 	0 	0 	
0.875 7.93553e-14 	0 	0 	
0.885 1.32259e-13 	0 	0 	
0.895 -5.29035e-14 	0 	0 	
0.905 1.05807e-13 	0 	0 	
0.915 -2.64517e-14 	0 	0 	
0.925 5.29036e-14 	0 	0 	
0.935 -1.32259e-13 	0 	0 	
0.945 -5.29035e-14 	0 	0 	
0.955 -7.93555e-14 	0 	0 	
0.965 -1.05807e-13 	0 	0 	
0.975 -1.85162e-13 	0 	0 	
0.985 -5.29035e-14 	0 	0 	
0.995 -2.6452e-14 	0 	0 	
