0.005 1.31789e-13 	0 	0 	
0.015 5.2022e-15 	0 	0 	
0.025 -1.73406e-13 	0 	0 	
0.035 7.10963e-14 	0 	0 	
0.045 6.93619e-15 	0 	0 	
0.055 -6.58944e-14 	0 	0 	
0.065 1.38725e-14 	0 	0 	
0.075 7.80328e-14 	0 	0 	
0.085 2.42771e-14 	1.87706e-29 	0 	
0.095 1.07512e-13 	0 	0 	
0.105 2.25431e-14 	0 	0 	
0.115 -1.1098e-13 	-9.62597e-30 	0 	
0.125 2.60109e-13 	9.62597e-30 	0 	
0.135 8.15008e-14 	0 	0 	
0.145 -3.46796e-15 	0 	0 	
0.155 9.19052e-14 	0 	0 	
0.165 6.93623e-14 	0 	0 	
0.175 1.73406e-14 	0 	0 	
0.185 9.36391e-14 	0 	0 	
0.195 -6.76282e-14 	0 	0 	
0.205 -1.21384e-13 	0 	0 	
0.215 -2.94788e-14 	0 	0 	
0.225 -5.20216e-14 	0 	0 	
0.235 7.80325e-14 	0 	0 	
0.245 4.68197e-14 	0 	0 	
0.255 -2.42769e-14 	0 	0 	
0.265 8.6704e-15 	0 	0 	
0.275 1.73406e-14 	0 	0 	
0.285 2.53173e-13 	0 	0 	
0.295 1.54201e-10 	0 	0 	
0.305 4.03189e-08 	0 	0 	
0.315 4.07696e-06 	0 	0 	
0.325 0.000186786 	0 	0 	
0.335 0.00438754 	0 	0 	
0.345 0.0571842 	0 	0 	
0.355 0.437583 	0 	0 	
0.365 2.07612 	0 	0 	
0.375 6.56253 	0 	0 	
0.385 15.1258 	0 	0 	
0.395 27.7954 	0 	0 	
0.405 43.7219 	0 	0 	
0.415 61.8097 	0 	0 	
0.425 80.9592 	0 	0 	
0.435 99.8363 	0 	0 	
0.445 116.198 	0 	0 	
0.455 126.587 	0 	0 	
0.465 129.891 	0 	0 	
0.475 130.193 	0 	0 	
0.485 130.171 	0 	0 	
0.495 130.148 	0 	0 	
0.505 130.124 	0 	0 	
0.515 130.093 	0 	0 	
0.525 130.038 	0 	0 	
0.535 -2.03311e+10 	0 	0 	
0.545 -2.28772e+15 	0 	0 	
0.555 -2.84218e+18 	0 	0 	
0.565 -5.33437e+22 	0 	0 	
0.575 -2.35241e+31 	0 	0 	
0.585 6.80888e+39 	0 	0 	
0.595 3.29421e+33 	0 	0 	
0.605 -3.97214e+39 	0 	0 	
0.615 8.23253e+35 	0 	0 	
0.625 3.9146e+28 	0 	0 	
0.635 9.2606e+21 	0 	0 	
0.645 2.77367e+22 	0 	0 	
0.655 6.35831e+10 	0 	0 	
0.665 2878.28 	0 	0 	
0.675 0.00521959 	0 	0 	
0.685 7.14978e-05 	0 	0 	
0.695 5.02032e-07 	0 	0 	
0.705 1.47352e-09 	0 	0 	
0.715 1.28754e-12 	0 	0 	
0.725 1.56065e-13 	0 	0 	
0.735 -4.68194e-14 	0 	0 	
0.745 4.94209e-14 	0 	0 	
0.755 5.85245e-14 	0 	0 	
0.765 5.33223e-14 	0 	0 	
0.775 5.85246e-14 	0 	0 	
0.785 -1.1835e-13 	0 	0 	
0.795 2.73115e-14 	0 	0 	
0.805 -1.70372e-13 	0 	0 	
0.815 -4.42187e-14 	0 	0 	
0.825 1.95082e-14 	0 	0 	
0.835 5.3322e-14 	0 	0 	
0.845 -1.82077e-14 	0 	0 	
0.855 3.51149e-14 	0 	0 	
0.865 2.60089e-15 	0 	0 	
0.875 -3.90165e-14 	0 	0 	
0.885 -3.25138e-14 	0 	0 	
0.895 1.26153e-13 	0 	0 	
0.905 2.60108e-15 	0 	0 	
0.915 7.80323e-15 	0 	0 	
0.925 -6.50275e-15 	0 	0 	
0.935 -6.50272e-14 	0 	0 	
0.945 8.81462e-25 	0 	0 	
0.955 -6.11256e-14 	0 	0 	
0.965 4.29177e-14 	0 	0 	
0.975 -3.90162e-14 	0 	0 	
0.985 -5.85243e-14 	0 	0 	
0.995 -7.9333e-14 	0 	0 	
