0.005 1.46954e-14 	0 	0 	
0.015 1.02868e-13 	0 	0 	
0.025 -1.46953e-14 	0 	0 	
0.035 -5.87819e-14 	0 	0 	
0.045 -2.93908e-14 	0 	0 	
0.055 -5.87817e-14 	0 	0 	
0.065 -4.40863e-14 	0 	0 	
0.075 -7.34772e-14 	0 	0 	
0.085 -7.3477e-14 	0 	0 	
0.095 -7.34772e-14 	0 	0 	
0.105 -7.3477e-14 	0 	0 	
0.115 5.87818e-14 	0 	0 	
0.125 1.17563e-13 	0 	0 	
0.135 2.05736e-13 	0 	0 	
0.145 1.91041e-13 	0 	0 	
0.155 1.46954e-13 	0 	0 	
0.165 2.20432e-13 	0 	0 	
0.175 1.9104e-13 	0 	0 	
0.185 1.6165e-13 	0 	0 	
0.195 -1.46952e-14 	0 	0 	
0.205 -1.46953e-14 	0 	0 	
0.215 -7.3477e-14 	0 	0 	
0.225 -1.17563e-13 	0 	0 	
0.235 -7.3477e-14 	0 	0 	
0.245 -1.46954e-13 	0 	0 	
0.255 -1.46954e-13 	0 	0 	
0.265 -2.05736e-13 	0 	0 	
0.275 -2.20431e-13 	0 	0 	
0.285 -1.17563e-13 	0 	0 	
0.295 1.46955e-14 	0 	0 	
0.305 2.93908e-14 	0 	0 	
0.315 5.87816e-14 	0 	0 	
0.325 5.87818e-13 	0 	0 	
0.335 4.95148e-10 	0 	0 	
0.345 1.29317e-07 	0 	0 	
0.355 1.26829e-05 	0 	0 	
0.365 0.000564633 	0 	0 	
0.375 0.0127452 	0 	0 	
0.385 0.156357 	0 	0 	
0.395 1.09834 	0 	0 	
0.405 4.6994 	0 	0 	
0.415 13.4017 	0 	0 	
0.425 28.312 	0 	0 	
0.435 48.6124 	0 	0 	
0.445 72.398 	0 	0 	
0.455 96.973 	0 	0 	
0.465 117.724 	0 	0 	
0.475 128.36 	0 	0 	
0.485 130.179 	0 	0 	
0.495 130.193 	0 	0 	
0.505 130.164 	0 	0 	
0.515 130.142 	0 	0 	
0.525 130.123 	0 	0 	
0.535 130.105 	0 	0 	
0.545 130.089 	0 	0 	
0.555 130.07 	0 	0 	
0.565 130.013 	0 	0 	
0.575 129.534 	0 	0 	
0.585 125.875 	0 	0 	
0.595 106.337 	0 	0 	
0.605 48.7023 	0 	0 	
0.615 5.71377 	0 	0 	
0.625 0.272297 	0 	0 	
0.635 0.00790021 	0 	0 	
0.645 0.000129991 	0 	0 	
0.655 1.04369e-06 	0 	0 	
0.665 3.28978e-09 	0 	0 	
0.675 2.76642e-12 	0 	0 	
0.685 6.61294e-14 	0 	0 	
0.695 2.20431e-14 	0 	0 	
0.705 -4.40865e-14 	0 	0 	
0.715 -5.51077e-14 	0 	0 	
0.725 2.20432e-14 	0 	0 	
0.735 -7.71509e-14 	0 	0 	
0.745 -7.71509e-14 	0 	0 	
0.755 -8.81727e-14 	0 	0 	
0.765 -6.61293e-14 	0 	0 	
0.775 -8.81725e-14 	0 	0 	
0.785 -1.32259e-13 	0 	0 	
0.795 -3.30647e-14 	0 	0 	
0.805 -8.81727e-14 	0 	0 	
0.815 3.30647e-14 	0 	0 	
0.825 4.40863e-14 	0 	0 	
0.835 6.61294e-14 	0 	0 	
0.845 4.40863e-14 	0 	0 	
0.855 1.21237e-13 	0 	0 	
0.865 3.30648e-14 	0 	0 	
0.875 1.10216e-14 	0 	0 	
0.885 -4.40865e-14 	0 	0 	
0.895 8.81726e-14 	0 	0 	
0.905 6.61294e-14 	0 	0 	
0.915 -1.10216e-14 	0 	0 	
0.925 -2.20432e-14 	0 	0 	
0.935 -2.20431e-14 	0 	0 	
0.945 1.10216e-13 	0 	0 	
0.955 1.10216e-13 	0 	0 	
0.965 2.2043e-14 	0 	0 	
0.975 5.51079e-14 	0 	0 	
0.985 -2.20432e-14 	0 	0 	
0.995 2.20431e-14 	0 	0 	
