0.005 -1.2932e-13 	0 	0 	
0.015 -2.02062e-13 	0 	0 	
0.025 -9.69895e-14 	0 	0 	
0.035 -4.8495e-14 	0 	0 	
0.045 -4.04125e-14 	0 	0 	
0.055 4.04125e-14 	0 	0 	
0.065 -4.8495e-14 	0 	0 	
0.075 3.233e-14 	0 	0 	
0.085 8.08247e-14 	0 	0 	
0.095 7.27424e-14 	0 	0 	
0.105 5.65776e-14 	0 	0 	
0.115 9.699e-14 	0 	0 	
0.125 4.04121e-14 	0 	0 	
0.135 -4.8495e-14 	0 	0 	
0.145 1.69732e-13 	0 	0 	
0.155 -8.08245e-15 	0 	0 	
0.165 4.04125e-14 	0 	0 	
0.175 2.42475e-14 	0 	0 	
0.185 6.46601e-14 	0 	0 	
0.195 -8.89075e-14 	0 	0 	
0.205 5.87611e-25 	0 	0 	
0.215 8.8907e-14 	0 	0 	
0.225 -5.8764e-25 	0 	0 	
0.235 5.65775e-14 	0 	0 	
0.245 8.89075e-14 	0 	0 	
0.255 8.08256e-15 	0 	0 	
0.265 -8.08246e-15 	0 	0 	
0.275 -9.69896e-14 	0 	0 	
0.285 -5.8764e-25 	0 	0 	
0.295 -4.04121e-14 	0 	0 	
0.305 -1.2932e-13 	0 	0 	
0.315 7.27424e-14 	6.05702e-30 	0 	
0.325 2.14946e-10 	0 	0 	
0.335 8.32117e-08 	-6.05702e-30 	0 	
0.345 9.80569e-06 	0 	0 	
0.355 0.000494841 	-3.25285e-30 	0 	
0.365 0.0118292 	1.21144e-29 	0 	
0.375 0.149502 	0 	0 	
0.385 1.05418 	0 	0 	
0.395 4.47556 	0 	0 	
0.405 12.6056 	9.30782e-31 	0 	
0.415 26.3262 	0 	0 	
0.425 44.8314 	-1.53992e-30 	0 	
0.435 66.5179 	0 	0 	
0.445 89.4373 	-2.06791e-30 	0 	
0.455 110.649 	-2.5465e-30 	0 	
0.465 125.124 	-1.66173e-30 	0 	
0.475 129.841 	0 	0 	
0.485 130.202 	0 	0 	
0.495 130.175 	-7.61833e-31 	0 	
0.505 130.152 	-6.77536e-31 	0 	
0.515 130.134 	0 	0 	
0.525 130.119 	0 	0 	
0.535 130.105 	0 	0 	
0.545 130.093 	0 	0 	
0.555 130.08 	0 	0 	
0.565 130.065 	0 	0 	
0.575 130.035 	0 	0 	
0.585 129.805 	0 	0 	
0.595 127.858 	0 	0 	
0.605 115.573 	0 	0 	
0.615 66.2466 	0 	0 	
0.625 9.03175 	0 	0 	
0.635 0.371296 	0 	0 	
0.645 0.00916632 	0 	0 	
0.655 0.000123222 	0 	0 	
0.665 7.85048e-07 	0 	0 	
0.675 1.59767e-09 	0 	0 	
0.685 6.18311e-13 	0 	0 	
0.695 -3.63712e-14 	0 	0 	
0.705 5.45569e-14 	0 	0 	
0.715 -6.06186e-15 	0 	0 	
0.725 -7.88043e-14 	0 	0 	
0.735 -6.06186e-15 	0 	0 	
0.745 5.45568e-14 	0 	0 	
0.755 2.42475e-14 	0 	0 	
0.765 1.33361e-13 	0 	0 	
0.775 6.06188e-14 	0 	0 	
0.785 6.06186e-15 	0 	0 	
0.795 -8.48663e-14 	0 	0 	
0.805 2.42476e-14 	0 	0 	
0.815 9.09281e-14 	0 	0 	
0.825 -6.06193e-15 	0 	0 	
0.835 -6.06187e-14 	0 	0 	
0.845 9.0928e-14 	0 	0 	
0.855 -3.03094e-14 	0 	0 	
0.865 6.66806e-14 	0 	0 	
0.875 -6.06186e-15 	0 	0 	
0.885 2.42475e-14 	0 	0 	
0.895 2.42474e-14 	0 	0 	
0.905 1.81857e-14 	0 	0 	
0.915 -9.69901e-14 	0 	0 	
0.925 -4.2433e-14 	0 	0 	
0.935 -9.09282e-14 	0 	0 	
0.945 1.81856e-14 	0 	0 	
0.955 3.03093e-14 	0 	0 	
0.965 -7.88045e-14 	0 	0 	
0.975 9.69901e-14 	0 	0 	
0.985 2.42476e-14 	0 	0 	
0.995 -4.2433e-14 	0 	0 	
