0.005 1.53994e-13 	0 	0 	
0.015 8.33856e-14 	0 	0 	
0.025 -2.35361e-14 	0 	0 	
0.035 3.3623e-14 	0 	0 	
0.045 -2.35359e-14 	0 	0 	
0.055 -1.81564e-14 	0 	0 	
0.065 -3.96754e-14 	0 	0 	
0.075 -4.03478e-14 	0 	0 	
0.085 -4.97619e-14 	0 	0 	
0.095 -1.00869e-13 	0 	0 	
0.105 -2.35361e-14 	0 	0 	
0.115 3.36234e-14 	4.19953e-30 	0 	
0.125 -1.68118e-14 	0 	0 	
0.135 -4.50551e-14 	0 	0 	
0.145 -9.88519e-14 	0 	0 	
0.155 -7.86778e-14 	0 	0 	
0.165 -2.55535e-14 	0 	0 	
0.175 -1.24406e-13 	0 	0 	
0.185 1.04232e-13 	0 	0 	
0.195 3.36231e-14 	0 	0 	
0.205 -1.34509e-15 	0 	0 	
0.215 -6.45562e-14 	0 	0 	
0.225 -4.70722e-14 	0 	0 	
0.235 -8.13677e-14 	0 	0 	
0.245 4.30374e-14 	0 	0 	
0.255 -1.0087e-13 	0 	0 	
0.265 -3.36257e-15 	0 	0 	
0.275 -6.7243e-15 	0 	0 	
0.285 -6.59011e-14 	0 	0 	
0.295 1.88291e-14 	0 	0 	
0.305 -1.54666e-14 	0 	0 	
0.315 5.7832e-14 	0 	0 	
0.325 5.04344e-14 	0 	0 	
0.335 4.70726e-15 	0 	0 	
0.345 3.22782e-14 	0 	0 	
0.355 -6.32112e-14 	0 	0 	
0.365 2.62262e-14 	0 	0 	
0.375 -1.00869e-13 	0 	0 	
0.385 -9.01101e-14 	0 	0 	
0.395 -4.16926e-14 	0 	0 	
0.405 -7.73333e-14 	0 	0 	
0.415 1.89155e-05 	0 	0 	
0.425 0.00734011 	0 	0 	
0.435 0.352133 	0 	0 	
0.445 4.21084 	0 	0 	
0.455 19.2959 	0 	0 	
0.465 49.3092 	0 	0 	
0.475 88.9463 	0 	0 	
0.485 122.163 	0 	0 	
0.495 130.16 	0 	0 	
0.505 130.182 	0 	0 	
0.515 130.137 	0 	0 	
0.525 130.084 	0 	0 	
0.535 129.626 	0 	0 	
0.545 122.301 	0 	0 	
0.555 74.3527 	0 	0 	
0.565 7.04039 	0 	0 	
0.575 0.0796825 	0 	0 	
0.585 0.000129537 	0 	0 	
0.595 1.61389e-14 	0 	0 	
0.605 9.63302e-14 	0 	0 	
0.615 -1.5433e-13 	0 	0 	
0.625 -1.26086e-14 	0 	0 	
0.635 8.72523e-14 	0 	0 	
0.645 2.21914e-14 	0 	0 	
0.655 -6.65738e-14 	0 	0 	
0.665 -6.05204e-15 	0 	0 	
0.675 4.28693e-14 	0 	0 	
0.685 3.63129e-14 	0 	0 	
0.695 6.05216e-15 	0 	0 	
0.705 -5.0435e-14 	0 	0 	
0.715 2.52174e-15 	0 	0 	
0.725 -2.52174e-14 	0 	0 	
0.735 -1.46261e-14 	0 	0 	
0.745 -2.52172e-14 	0 	0 	
0.755 8.32173e-14 	0 	0 	
0.765 3.32869e-14 	0 	0 	
0.775 -7.81739e-14 	0 	0 	
0.785 -2.52174e-14 	0 	0 	
0.795 -4.38784e-14 	0 	0 	
0.805 1.56348e-14 	0 	0 	
0.815 1.61391e-14 	0 	0 	
0.825 1.96695e-13 	0 	0 	
0.835 -2.87478e-14 	0 	0 	
0.845 -1.66435e-14 	0 	0 	
0.855 2.13339e-13 	0 	0 	
0.865 4.74087e-14 	0 	0 	
0.875 1.13478e-13 	0 	0 	
0.885 1.96695e-14 	0 	0 	
0.895 -4.58955e-14 	0 	0 	
0.905 7.46431e-14 	0 	0 	
0.915 7.06052e-15 	0 	0 	
0.925 2.32e-13 	0 	0 	
0.935 9.07821e-15 	0 	0 	
0.945 -9.12866e-14 	0 	0 	
0.955 6.05219e-14 	0 	0 	
0.965 -5.24519e-14 	0 	0 	
0.975 1.7652e-14 	0 	0 	
0.985 -8.77564e-14 	0 	0 	
0.995 3.63128e-14 	0 	0 	
