0.005 2.33978e-24 	0 	0 	
0.015 2.35127e-14 	0 	0 	
0.025 -2.35126e-14 	0 	0 	
0.035 2.35126e-14 	0 	0 	
0.045 -2.35127e-14 	0 	0 	
0.055 0 	0 	0 	
0.065 4.70256e-14 	0 	0 	
0.075 2.35127e-14 	0 	0 	
0.085 1.16998e-24 	0 	0 	
0.095 4.70253e-14 	0 	0 	
0.105 2.3513e-14 	0 	0 	
0.115 4.70254e-14 	0 	0 	
0.125 -7.0538e-14 	0 	0 	
0.135 7.05383e-14 	0 	0 	
0.145 4.70254e-14 	0 	0 	
0.155 -1.17564e-13 	0 	0 	
0.165 -2.35127e-14 	0 	0 	
0.175 4.70254e-14 	0 	0 	
0.185 -7.05381e-14 	0 	0 	
0.195 -7.0538e-14 	0 	0 	
0.205 -4.70254e-14 	2.93674e-30 	0 	
0.215 9.40507e-14 	0 	0 	
0.225 -2.35127e-14 	0 	0 	
0.235 -1.75262e-24 	0 	0 	
0.245 -2.35126e-14 	0 	0 	
0.255 -2.35127e-14 	0 	0 	
0.265 -4.70254e-14 	0 	0 	
0.275 -4.70254e-14 	0 	0 	
0.285 -4.70256e-14 	0 	0 	
0.295 -5.83699e-25 	0 	0 	
0.305 -2.35127e-14 	0 	0 	
0.315 2.35127e-14 	0 	0 	
0.325 2.35127e-14 	0 	0 	
0.335 -7.0538e-14 	0 	0 	
0.345 -4.70254e-14 	0 	0 	
0.355 -2.35127e-14 	0 	0 	
0.365 4.70255e-14 	0 	0 	
0.375 7.05381e-14 	0 	0 	
0.385 7.05381e-14 	0 	0 	
0.395 -2.35127e-14 	0 	0 	
0.405 -2.35126e-14 	0 	0 	
0.415 1.61606e-08 	0 	0 	
0.425 2.87477e-05 	0 	0 	
0.435 0.00474109 	0 	0 	
0.445 0.190102 	0 	0 	
0.455 2.58114 	0 	0 	
0.465 14.7782 	0 	0 	
0.475 45.4832 	0 	0 	
0.485 91.9492 	0 	0 	
0.495 126.806 	0 	0 	
0.505 130.206 	-7.5471e-31 	0 	
0.515 129.905 	7.6561e-31 	0 	
0.525 125.332 	-1.36353e-30 	0 	
0.535 94.2381 	-9.17321e-31 	0 	
0.545 26.7222 	-1.10825e-30 	0 	
0.555 1.58818 	0 	0 	
0.565 0.0291529 	0 	0 	
0.575 0.00013999 	0 	0 	
0.585 6.41684e-08 	0 	0 	
0.595 1.76345e-14 	0 	0 	
0.605 5.29035e-14 	0 	0 	
0.615 7.0538e-14 	0 	0 	
0.625 -3.5269e-14 	0 	0 	
0.635 -8.81725e-14 	0 	0 	
0.645 3.5269e-14 	0 	0 	
0.655 -1.76345e-14 	0 	0 	
0.665 1.76345e-14 	0 	0 	
0.675 4.36204e-25 	0 	0 	
0.685 3.52689e-14 	0 	0 	
0.695 1.76345e-14 	0 	0 	
0.705 -5.29036e-14 	0 	0 	
0.715 -2.17711e-24 	0 	0 	
0.725 -5.29035e-14 	0 	0 	
0.735 -1.30623e-24 	0 	0 	
0.745 -1.76345e-14 	0 	0 	
0.755 1.05807e-13 	-1.10128e-30 	0 	
0.765 1.30626e-24 	0 	0 	
0.775 5.29035e-14 	0 	0 	
0.785 5.29035e-14 	0 	0 	
0.795 5.29035e-14 	-1.10128e-30 	0 	
0.805 8.81725e-14 	-1.10128e-30 	0 	
0.815 1.76345e-14 	0 	0 	
0.825 -1.05807e-13 	0 	0 	
0.835 -1.76345e-14 	0 	0 	
0.845 -4.34601e-25 	0 	0 	
0.855 -1.76345e-14 	0 	0 	
0.865 5.29035e-14 	0 	0 	
0.875 4.34617e-25 	0 	0 	
0.885 2.1732e-24 	0 	0 	
0.895 3.52689e-14 	0 	0 	
0.905 1.76345e-14 	0 	0 	
0.915 -1.76345e-14 	0 	0 	
0.925 -1.76345e-14 	0 	0 	
0.935 -3.5269e-14 	0 	0 	
0.945 -8.81725e-14 	0 	0 	
0.955 5.29035e-14 	0 	0 	
0.965 -7.0538e-14 	0 	0 	
0.975 3.91565e-30 	0 	0 	
0.985 8.81725e-14 	0 	0 	
0.995 3.5269e-14 	0 	0 	
