0.005 7.0538e-14 	0 	0 	
0.015 2.35127e-14 	0 	0 	
0.025 4.70254e-14 	0 	0 	
0.035 -2.33976e-24 	0 	0 	
0.045 -4.70254e-14 	0 	0 	
0.055 -4.70256e-14 	0 	0 	
0.065 7.05381e-14 	0 	0 	
0.075 7.05381e-14 	0 	0 	
0.085 4.70254e-14 	0 	0 	
0.095 4.70254e-14 	0 	0 	
0.105 7.0538e-14 	0 	0 	
0.115 9.40506e-14 	0 	0 	
0.125 7.0538e-14 	0 	0 	
0.135 7.0538e-14 	0 	0 	
0.145 -7.05381e-14 	0 	0 	
0.155 -5.85008e-25 	0 	0 	
0.165 1.17563e-13 	0 	0 	
0.175 1.75423e-24 	0 	0 	
0.185 4.70253e-14 	0 	0 	
0.195 -4.70254e-14 	0 	0 	
0.205 -7.0538e-14 	2.28413e-30 	0 	
0.215 5.8448e-25 	0 	0 	
0.225 4.70253e-14 	0 	0 	
0.235 -4.70254e-14 	0 	0 	
0.245 4.70255e-14 	0 	0 	
0.255 9.4051e-14 	0 	0 	
0.265 -7.05383e-14 	0 	0 	
0.275 2.35127e-14 	0 	0 	
0.285 -5.83689e-25 	0 	0 	
0.295 -5.83681e-25 	0 	0 	
0.305 -2.35127e-14 	0 	0 	
0.315 -5.83706e-25 	0 	0 	
0.325 2.35126e-14 	0 	0 	
0.335 -2.35127e-14 	0 	0 	
0.345 7.05381e-14 	0 	0 	
0.355 -7.05383e-14 	0 	0 	
0.365 2.3513e-14 	0 	0 	
0.375 2.35126e-14 	0 	0 	
0.385 7.0538e-14 	0 	0 	
0.395 -4.70254e-14 	0 	0 	
0.405 -1.74952e-24 	0 	0 	
0.415 2.3513e-14 	0 	0 	
0.425 7.05383e-14 	0 	0 	
0.435 4.54901e-06 	0 	0 	
0.445 0.00335975 	0 	0 	
0.455 0.2377 	0 	0 	
0.465 3.96841 	0 	0 	
0.475 23.3723 	0 	0 	
0.485 68.9084 	0 	0 	
0.495 120.945 	0 	0 	
0.505 130.167 	-7.71228e-31 	0 	
0.515 128.019 	4.87959e-31 	0 	
0.525 104.19 	-1.07446e-30 	0 	
0.535 33.4425 	-8.65935e-31 	0 	
0.545 1.71333 	-9.71623e-31 	0 	
0.555 0.0177273 	0 	0 	
0.565 1.8572e-05 	0 	0 	
0.575 3.5269e-14 	0 	0 	
0.585 1.76345e-14 	0 	0 	
0.595 5.29035e-14 	0 	0 	
0.605 3.5269e-14 	0 	0 	
0.615 7.0538e-14 	0 	0 	
0.625 -3.52691e-14 	0 	0 	
0.635 -3.5269e-14 	0 	0 	
0.645 -3.5269e-14 	0 	0 	
0.655 -1.76345e-14 	0 	0 	
0.665 -3.52689e-14 	0 	0 	
0.675 7.0538e-14 	0 	0 	
0.685 -1.76345e-14 	0 	0 	
0.695 -3.52689e-14 	0 	0 	
0.705 3.52689e-14 	0 	0 	
0.715 -1.56626e-29 	0 	0 	
0.725 -5.29035e-14 	0 	0 	
0.735 -7.05381e-14 	0 	0 	
0.745 -1.76345e-14 	0 	0 	
0.755 5.29035e-14 	-8.56548e-31 	0 	
0.765 -1.76346e-14 	0 	0 	
0.775 7.0538e-14 	0 	0 	
0.785 -1.76344e-14 	0 	0 	
0.795 1.74169e-24 	-8.56548e-31 	0 	
0.805 3.5269e-14 	-8.56548e-31 	0 	
0.815 8.81725e-14 	0 	0 	
0.825 -5.29035e-14 	0 	0 	
0.835 -4.34634e-25 	0 	0 	
0.845 5.29035e-14 	0 	0 	
0.855 1.76345e-14 	0 	0 	
0.865 5.29035e-14 	0 	0 	
0.875 3.5269e-14 	0 	0 	
0.885 1.76345e-14 	0 	0 	
0.895 -3.5269e-14 	0 	0 	
0.905 1.76345e-14 	0 	0 	
0.915 -3.5269e-14 	0 	0 	
0.925 3.5269e-14 	0 	0 	
0.935 3.5269e-14 	0 	0 	
0.945 3.5269e-14 	0 	0 	
0.955 3.5269e-14 	0 	0 	
0.965 -3.5269e-14 	0 	0 	
0.975 -7.8313e-30 	0 	0 	
0.985 -7.0538e-14 	0 	0 	
0.995 5.29035e-14 	0 	0 	
