0.005 4.04125e-14 	0 	0 	
0.015 -4.8495e-14 	0 	0 	
0.025 4.04124e-14 	0 	0 	
0.035 5.65775e-14 	0 	0 	
0.045 3.233e-14 	0 	0 	
0.055 4.8495e-14 	0 	0 	
0.065 8.0825e-15 	0 	0 	
0.075 1.6165e-14 	0 	0 	
0.085 1.2932e-13 	0 	0 	
0.095 -2.42475e-14 	0 	0 	
0.105 4.8495e-14 	0 	0 	
0.115 2.42475e-14 	0 	0 	
0.125 2.42475e-14 	0 	0 	
0.135 2.42475e-14 	0 	0 	
0.145 8.08249e-14 	0 	0 	
0.155 1.77196e-21 	0 	0 	
0.165 -3.233e-14 	0 	0 	
0.175 8.08288e-15 	0 	0 	
0.185 -4.04125e-14 	0 	0 	
0.195 1.6165e-14 	0 	0 	
0.205 -7.27421e-14 	0 	0 	
0.215 8.0825e-14 	0 	0 	
0.225 3.233e-14 	0 	0 	
0.235 1.45485e-13 	0 	0 	
0.245 -7.27425e-14 	0 	0 	
0.255 -8.89076e-14 	0 	0 	
0.265 -5.65775e-14 	0 	0 	
0.275 -2.42475e-14 	0 	0 	
0.285 -2.42475e-14 	0 	0 	
0.295 4.04125e-14 	0 	0 	
0.305 -7.27425e-14 	0 	0 	
0.315 2.42475e-14 	3.58935e-30 	0 	
0.325 1.6165e-14 	0 	0 	
0.335 -1.05073e-13 	-3.58935e-30 	0 	
0.345 -2.42476e-14 	0 	0 	
0.355 9.69897e-14 	-1.79468e-30 	0 	
0.365 -3.23299e-14 	7.1787e-30 	0 	
0.375 4.8495e-14 	0 	0 	
0.385 2.00809e-10 	0 	0 	
0.395 2.20266e-06 	0 	0 	
0.405 0.000658091 	0 	0 	
0.415 0.0392554 	0 	0 	
0.425 0.712392 	0 	0 	
0.435 5.15424 	0 	0 	
0.445 18.7679 	0 	0 	
0.455 43.5394 	0 	0 	
0.465 76.245 	-2.54596e-30 	0 	
0.475 109.269 	0 	0 	
0.485 127.961 	0 	0 	
0.495 130.211 	-5.08508e-31 	0 	
0.505 130.177 	-5.09306e-31 	0 	
0.515 130.141 	0 	0 	
0.525 130.11 	0 	0 	
0.535 130.065 	0 	0 	
0.545 129.643 	0 	0 	
0.555 124.637 	0 	0 	
0.565 92.5515 	0 	0 	
0.575 20.0483 	0 	0 	
0.585 0.656417 	0 	0 	
0.595 0.00663087 	0 	0 	
0.605 1.55088e-05 	0 	0 	
0.615 9.89303e-10 	0 	0 	
0.625 6.06188e-14 	0 	0 	
0.635 -6.06186e-14 	0 	0 	
0.645 -4.84949e-14 	0 	0 	
0.655 1.11171e-19 	0 	0 	
0.665 -7.88042e-14 	0 	0 	
0.675 2.42476e-14 	0 	0 	
0.685 -5.45569e-14 	0 	0 	
0.695 -1.21237e-14 	0 	0 	
0.705 -5.45569e-14 	0 	0 	
0.715 1.81853e-14 	0 	0 	
0.725 -7.88044e-14 	0 	0 	
0.735 9.09281e-14 	0 	0 	
0.745 2.42475e-14 	0 	0 	
0.755 2.42474e-14 	0 	0 	
0.765 2.42476e-14 	0 	0 	
0.775 -1.76284e-24 	0 	0 	
0.785 2.42475e-14 	0 	0 	
0.795 9.699e-14 	0 	0 	
0.805 5.45569e-14 	0 	0 	
0.815 -3.03093e-14 	0 	0 	
0.825 4.4418e-29 	0 	0 	
0.835 -2.42475e-14 	0 	0 	
0.845 3.03093e-14 	0 	0 	
0.855 3.63713e-14 	0 	0 	
0.865 5.45569e-14 	0 	0 	
0.875 -1.81856e-14 	0 	0 	
0.885 2.42475e-14 	0 	0 	
0.895 -5.45568e-14 	0 	0 	
0.905 -3.63712e-14 	0 	0 	
0.915 4.2433e-14 	0 	0 	
0.925 3.63712e-14 	0 	0 	
0.935 6.06191e-15 	0 	0 	
0.945 9.69901e-14 	0 	0 	
0.955 -9.699e-14 	0 	0 	
0.965 -6.06186e-14 	0 	0 	
0.975 -1.81857e-14 	0 	0 	
0.985 -6.0619e-15 	0 	0 	
0.995 -6.06191e-15 	0 	0 	
