0.005 5.87818e-14 	0 	0 	
0.015 1.46953e-14 	0 	0 	
0.025 2.93908e-14 	0 	0 	
0.035 1.46953e-14 	0 	0 	
0.045 -2.49993e-19 	0 	0 	
0.055 -1.46953e-14 	0 	0 	
0.065 5.87817e-14 	0 	0 	
0.075 -1.46953e-14 	0 	0 	
0.085 -4.40865e-14 	0 	0 	
0.095 -1.46953e-14 	0 	0 	
0.105 6.52608e-30 	0 	0 	
0.115 -1.46953e-14 	0 	0 	
0.125 -5.87815e-14 	0 	0 	
0.135 2.93908e-14 	0 	0 	
0.145 1.32259e-13 	0 	0 	
0.155 2.49823e-13 	0 	0 	
0.165 8.81725e-14 	0 	0 	
0.175 1.32259e-13 	0 	0 	
0.185 1.32259e-13 	0 	0 	
0.195 -1.02868e-13 	0 	0 	
0.205 -4.40863e-14 	0 	0 	
0.215 -2.93909e-14 	0 	0 	
0.225 -8.81728e-14 	0 	0 	
0.235 2.93908e-14 	0 	0 	
0.245 -8.81727e-14 	0 	0 	
0.255 2.9391e-14 	0 	0 	
0.265 -1.17563e-13 	0 	0 	
0.275 -8.81725e-14 	0 	0 	
0.285 -1.17564e-13 	0 	0 	
0.295 -7.34769e-14 	0 	0 	
0.305 2.93905e-14 	0 	0 	
0.315 2.93909e-14 	0 	0 	
0.325 8.81722e-14 	0 	0 	
0.335 1.17563e-13 	0 	0 	
0.345 2.93907e-14 	0 	0 	
0.355 2.93908e-14 	0 	0 	
0.365 -6.95645e-30 	0 	0 	
0.375 4.40865e-14 	0 	0 	
0.385 -1.32259e-13 	0 	0 	
0.395 1.88803e-08 	0 	0 	
0.405 2.20385e-05 	0 	0 	
0.415 0.00313064 	0 	0 	
0.425 0.11646 	0 	0 	
0.435 1.53503 	0 	0 	
0.445 8.81644 	0 	0 	
0.455 27.6496 	0 	0 	
0.465 58.4825 	0 	0 	
0.475 95.3899 	0 	0 	
0.485 123.706 	0 	0 	
0.495 130.152 	0 	0 	
0.505 130.189 	0 	0 	
0.515 130.145 	0 	0 	
0.525 130.098 	0 	0 	
0.535 129.802 	0 	0 	
0.545 126.046 	0 	0 	
0.555 100.322 	0 	0 	
0.565 31.4816 	0 	0 	
0.575 1.72763 	0 	0 	
0.585 0.0295421 	0 	0 	
0.595 0.000149355 	0 	0 	
0.605 9.77052e-08 	0 	0 	
0.615 8.81727e-14 	0 	0 	
0.625 2.20433e-14 	0 	0 	
0.635 9.91941e-14 	0 	0 	
0.645 3.30647e-14 	0 	0 	
0.655 -1.10215e-14 	0 	0 	
0.665 -2.20432e-14 	0 	0 	
0.675 5.51079e-14 	0 	0 	
0.685 8.81724e-14 	0 	0 	
0.695 -3.30644e-14 	0 	0 	
0.705 5.5108e-14 	0 	0 	
0.715 1.10216e-14 	0 	0 	
0.725 4.40865e-14 	0 	0 	
0.735 -2.20431e-14 	0 	0 	
0.745 -9.91942e-14 	0 	0 	
0.755 -1.10218e-14 	0 	0 	
0.765 -3.30647e-14 	0 	0 	
0.775 -1.21237e-13 	0 	0 	
0.785 -1.10216e-13 	0 	0 	
0.795 -1.10216e-13 	0 	0 	
0.805 -6.61292e-14 	0 	0 	
0.815 2.20431e-14 	0 	0 	
0.825 2.93674e-29 	0 	0 	
0.835 1.10216e-13 	0 	0 	
0.845 9.91941e-14 	0 	0 	
0.855 6.61295e-14 	0 	0 	
0.865 1.4328e-13 	0 	0 	
0.875 3.30647e-14 	0 	0 	
0.885 -5.5108e-14 	0 	0 	
0.895 -1.10216e-14 	0 	0 	
0.905 -8.81727e-14 	0 	0 	
0.915 -5.51078e-14 	0 	0 	
0.925 -6.61293e-14 	0 	0 	
0.935 4.40863e-14 	0 	0 	
0.945 1.10216e-14 	0 	0 	
0.955 4.40863e-14 	0 	0 	
0.965 4.40863e-14 	0 	0 	
0.975 2.20432e-14 	0 	0 	
0.985 5.51079e-14 	0 	0 	
0.995 1.10216e-14 	0 	0 	
