0.005 1.0231e-13 	0 	0 	
0.015 -3.46813e-14 	0 	0 	
0.025 -2.6011e-14 	0 	0 	
0.035 -8.1501e-14 	0 	0 	
0.045 3.46812e-15 	0 	0 	
0.055 -3.12131e-14 	0 	0 	
0.065 -3.46813e-14 	0 	0 	
0.075 -6.93623e-14 	0 	0 	
0.085 5.37559e-14 	4.33169e-30 	0 	
0.095 3.98834e-14 	0 	0 	
0.105 -1.94215e-13 	0 	0 	
0.115 -1.33523e-13 	-2.4065e-30 	0 	
0.125 8.67025e-15 	1.92519e-30 	0 	
0.135 9.01713e-14 	0 	0 	
0.145 -3.46837e-15 	0 	0 	
0.155 1.73406e-14 	0 	0 	
0.165 -2.60107e-14 	0 	0 	
0.175 1.12714e-13 	0 	0 	
0.185 8.49691e-14 	0 	0 	
0.195 -1.33523e-13 	0 	0 	
0.205 1.0231e-13 	0 	0 	
0.215 -9.01708e-14 	0 	0 	
0.225 -1.99417e-13 	0 	0 	
0.235 1.578e-13 	0 	0 	
0.245 3.4681e-14 	0 	0 	
0.255 -9.88414e-14 	0 	0 	
0.265 -6.76284e-14 	0 	0 	
0.275 -1.56065e-13 	0 	0 	
0.285 5.20223e-15 	0 	0 	
0.295 6.93624e-15 	0 	0 	
0.305 -5.8958e-14 	0 	0 	
0.315 1.31789e-13 	0 	0 	
0.325 5.20219e-14 	0 	0 	
0.335 -4.68198e-14 	0 	0 	
0.345 -3.81493e-14 	0 	0 	
0.355 6.58945e-14 	0 	0 	
0.365 -1.73409e-15 	0 	0 	
0.375 -1.73406e-14 	0 	0 	
0.385 5.89581e-14 	0 	0 	
0.395 -3.46813e-15 	0 	0 	
0.405 -6.58943e-14 	0 	0 	
0.415 -5.37558e-14 	0 	0 	
0.425 -2.6011e-14 	0 	0 	
0.435 -4.50856e-14 	0 	0 	
0.445 -7.28308e-14 	0 	0 	
0.455 0.0129005 	0 	0 	
0.465 1.89186 	0 	0 	
0.475 20.9384 	0 	0 	
0.485 72.2296 	0 	0 	
0.495 125.354 	0 	0 	
0.505 130.178 	0 	0 	
0.515 129.286 	0 	0 	
0.525 106.554 	0 	0 	
0.535 22.6316 	0 	0 	
0.545 0.0893488 	0 	0 	
0.555 5.46231e-14 	0 	0 	
0.565 1.56063e-14 	0 	0 	
0.575 8.45357e-14 	0 	0 	
0.585 2.21093e-14 	0 	0 	
0.595 2.08087e-14 	0 	0 	
0.605 -2.08088e-14 	0 	0 	
0.615 -7.41309e-14 	0 	0 	
0.625 7.15299e-14 	0 	0 	
0.635 2.60092e-15 	0 	0 	
0.645 -5.98249e-14 	0 	0 	
0.655 -2.08086e-14 	0 	0 	
0.665 7.80325e-14 	0 	0 	
0.675 -6.50273e-14 	0 	0 	
0.685 1.04044e-14 	0 	0 	
0.695 4.55189e-14 	0 	0 	
0.705 -9.88418e-14 	0 	0 	
0.715 1.10546e-13 	0 	0 	
0.725 1.04044e-13 	0 	0 	
0.735 5.85243e-14 	0 	0 	
0.745 -7.80312e-15 	0 	0 	
0.755 -4.94208e-14 	0 	0 	
0.765 -3.51147e-14 	0 	0 	
0.775 1.95082e-14 	0 	0 	
0.785 -5.85247e-14 	0 	0 	
0.795 2.34098e-14 	0 	0 	
0.805 -5.20216e-14 	0 	0 	
0.815 -8.45352e-14 	0 	0 	
0.825 -4.55193e-14 	0 	0 	
0.835 -8.5836e-14 	0 	0 	
0.845 6.11259e-14 	0 	0 	
0.855 5.20215e-14 	0 	0 	
0.865 8.71368e-14 	0 	0 	
0.875 1.95084e-14 	0 	0 	
0.885 3.25138e-14 	0 	0 	
0.895 -5.20215e-14 	0 	0 	
0.905 2.08088e-14 	0 	0 	
0.915 -5.20216e-14 	0 	0 	
0.925 1.95084e-14 	0 	0 	
0.935 -1.82075e-14 	0 	0 	
0.945 4.03166e-14 	0 	0 	
0.955 -3.51148e-14 	0 	0 	
0.965 6.50246e-15 	0 	0 	
0.975 4.55191e-14 	0 	0 	
0.985 -3.90167e-15 	0 	0 	
0.995 -7.6732e-14 	0 	0 	
