0.005 -5.4882e-08 	0 	0 	
0.015 9.70805e-08 	0 	0 	
0.025 3.81726e-08 	0 	0 	
0.035 -3.93913e-08 	0 	0 	
0.045 1.65307e-07 	0 	0 	
0.055 1.22986e-07 	0 	0 	
0.065 1.56708e-07 	0 	0 	
0.075 -1.61305e-08 	0 	0 	
0.085 3.06715e-08 	0 	0 	
0.095 -2.6855e-09 	0 	0 	
0.105 -2.73189e-08 	0 	0 	
0.115 5.4226e-09 	0 	0 	
0.125 -8.04355e-08 	0 	0 	
0.135 5.71185e-08 	0 	0 	
0.145 1.82335e-08 	0 	0 	
0.155 1.7155e-08 	0 	0 	
0.165 -4.06905e-08 	0 	0 	
0.175 -5.24665e-08 	0 	0 	
0.185 3.8075e-09 	0 	0 	
0.195 -2.9745e-08 	0 	0 	
0.205 6.7189e-08 	0 	0 	
0.215 1.0684e-07 	0 	0 	
0.225 8.33315e-08 	0 	0 	
0.235 -6.97e-09 	0 	0 	
0.245 -2.47375e-08 	0 	0 	
0.255 1.16348e-07 	0 	0 	
0.265 -2.786e-08 	0 	0 	
0.275 -6.87963e-08 	0 	0 	
0.285 1.67346e-07 	0 	0 	
0.295 -4.31295e-08 	0 	0 	
0.305 -1.63725e-08 	0 	0 	
0.315 8.31325e-08 	0 	0 	
0.325 5.16685e-08 	0 	0 	
0.335 -7.78075e-08 	0 	0 	
0.345 1.9258e-08 	0 	0 	
0.355 -5.06035e-08 	0 	0 	
0.365 -6.2573e-08 	0 	0 	
0.375 3.1478e-08 	0 	0 	
0.385 1.24702e-08 	0 	0 	
0.395 4.3686e-08 	0 	0 	
0.405 2.8268e-08 	0 	0 	
0.415 1.7931e-08 	0 	0 	
0.425 -1.11964e-07 	0 	0 	
0.435 1.07267e-07 	0 	0 	
0.445 -5.26325e-08 	0 	0 	
0.455 6.88e-10 	0 	0 	
0.465 -4041.87 	0 	0 	
0.475 -2.86034e+08 	0 	0 	
0.485 -3.70655e+16 	0 	0 	
0.495 -2.42696e+28 	0 	0 	
0.505 4.0147e+36 	0 	0 	
0.515 4.06344e+23 	0 	0 	
0.525 1.65344e+14 	0 	0 	
0.535 46709.2 	0 	0 	
0.545 2.245e-08 	0 	0 	
0.555 -5.4602e-08 	0 	0 	
0.565 -1.3219e-08 	0 	0 	
0.575 -1.92725e-08 	0 	0 	
0.585 -6.4471e-08 	0 	0 	
0.595 -2.79595e-08 	0 	0 	
0.605 -8.6135e-09 	0 	0 	
0.615 -8.40787e-08 	0 	0 	
0.625 4.70495e-08 	0 	0 	
0.635 4.02095e-08 	0 	0 	
0.645 1.5432e-07 	0 	0 	
0.655 2.00471e-08 	0 	0 	
0.665 -1.34406e-07 	0 	0 	
0.675 9.35995e-08 	0 	0 	
0.685 -1.11249e-07 	0 	0 	
0.695 5.2052e-08 	0 	0 	
0.705 6.93756e-08 	0 	0 	
0.715 -9.097e-09 	0 	0 	
0.725 -4.9973e-09 	0 	0 	
0.735 2.0886e-08 	0 	0 	
0.745 -1.60175e-08 	0 	0 	
0.755 5.2855e-08 	0 	0 	
0.765 -2.576e-08 	0 	0 	
0.775 9.79258e-08 	0 	0 	
0.785 -5.75035e-08 	0 	0 	
0.795 -3.6764e-08 	0 	0 	
0.805 -6.62e-09 	0 	0 	
0.815 7.157e-08 	0 	0 	
0.825 -6.9365e-08 	0 	0 	
0.835 9.7884e-08 	0 	0 	
0.845 -9.86085e-08 	0 	0 	
0.855 -5.42325e-08 	0 	0 	
0.865 -4.82405e-08 	0 	0 	
0.875 4.9267e-08 	0 	0 	
0.885 -4.2577e-08 	0 	0 	
0.895 6.90695e-08 	0 	0 	
0.905 1.09832e-07 	0 	0 	
0.915 -9.581e-09 	0 	0 	
0.925 8.35685e-08 	0 	0 	
0.935 1.93235e-08 	0 	0 	
0.945 -1.06325e-07 	0 	0 	
0.955 3.71465e-08 	0 	0 	
0.965 -5.87478e-08 	0 	0 	
0.975 -8.93748e-08 	0 	0 	
0.985 3.9361e-08 	0 	0 	
0.995 -1.92705e-08 	0 	0 	
