0.005 2.93908e-14 	0 	0 	
0.015 2.93908e-14 	0 	0 	
0.025 -2.49996e-19 	0 	0 	
0.035 -2.93908e-14 	0 	0 	
0.045 -1.46953e-14 	0 	0 	
0.055 1.74998e-19 	0 	0 	
0.065 4.40862e-14 	0 	0 	
0.075 1.82771e-24 	0 	0 	
0.085 -1.46953e-14 	0 	0 	
0.095 -1.02868e-13 	0 	0 	
0.105 -4.40862e-14 	0 	0 	
0.115 -5.87818e-14 	0 	0 	
0.125 2.50004e-19 	0 	0 	
0.135 5.8782e-14 	0 	0 	
0.145 1.32259e-13 	0 	0 	
0.155 1.46954e-13 	0 	0 	
0.165 1.46954e-13 	0 	0 	
0.175 1.17563e-13 	0 	0 	
0.185 8.81723e-14 	0 	0 	
0.195 -1.46955e-14 	0 	0 	
0.205 -7.34771e-14 	0 	0 	
0.215 -1.46958e-14 	0 	0 	
0.225 -1.46954e-14 	0 	0 	
0.235 2.9391e-14 	0 	0 	
0.245 -4.40862e-14 	0 	0 	
0.255 -1.46955e-14 	0 	0 	
0.265 -1.46954e-13 	0 	0 	
0.275 -1.9104e-13 	0 	0 	
0.285 -1.46955e-13 	0 	0 	
0.295 -1.17563e-13 	0 	0 	
0.305 2.93907e-14 	0 	0 	
0.315 2.93907e-14 	0 	0 	
0.325 2.9391e-14 	0 	0 	
0.335 1.02868e-13 	0 	0 	
0.345 1.6165e-13 	0 	0 	
0.355 1.46955e-14 	0 	0 	
0.365 -9.99982e-20 	0 	0 	
0.375 1.17564e-13 	0 	0 	
0.385 -1.46955e-14 	0 	0 	
0.395 1.1389e-11 	0 	0 	
0.405 6.34251e-07 	0 	0 	
0.415 0.000330803 	0 	0 	
0.425 0.0266641 	0 	0 	
0.435 0.603246 	0 	0 	
0.445 5.06204 	0 	0 	
0.455 20.1943 	0 	0 	
0.465 49.1949 	0 	0 	
0.475 87.4872 	0 	0 	
0.485 120.668 	0 	0 	
0.495 130.073 	0 	0 	
0.505 130.191 	0 	0 	
0.515 130.143 	0 	0 	
0.525 130.072 	0 	0 	
0.535 129.268 	0 	0 	
0.545 120.39 	0 	0 	
0.555 74.3528 	0 	0 	
0.565 10.6304 	0 	0 	
0.575 0.295081 	0 	0 	
0.585 0.00247558 	0 	0 	
0.595 3.52176e-06 	0 	0 	
0.605 4.57726e-11 	0 	0 	
0.615 5.51078e-14 	0 	0 	
0.625 5.51079e-14 	0 	0 	
0.635 1.10216e-13 	0 	0 	
0.645 -4.40862e-14 	0 	0 	
0.655 -1.10216e-14 	0 	0 	
0.665 -5.51079e-14 	0 	0 	
0.675 1.10214e-14 	0 	0 	
0.685 4.40863e-14 	0 	0 	
0.695 -3.30645e-14 	0 	0 	
0.705 -2.20432e-14 	0 	0 	
0.715 -1.3607e-24 	0 	0 	
0.725 -6.61295e-14 	0 	0 	
0.735 4.40863e-14 	0 	0 	
0.745 -6.61294e-14 	0 	0 	
0.755 3.30647e-14 	0 	0 	
0.765 -2.2043e-14 	0 	0 	
0.775 -9.91941e-14 	0 	0 	
0.785 -2.20432e-14 	0 	0 	
0.795 -7.7151e-14 	0 	0 	
0.805 -5.51079e-14 	0 	0 	
0.815 -7.71511e-14 	0 	0 	
0.825 -1.10215e-14 	0 	0 	
0.835 7.71511e-14 	0 	0 	
0.845 6.61295e-14 	0 	0 	
0.855 4.40863e-14 	0 	0 	
0.865 7.71511e-14 	0 	0 	
0.875 6.61295e-14 	0 	0 	
0.885 -4.40863e-14 	0 	0 	
0.895 2.2043e-14 	0 	0 	
0.905 -4.40861e-14 	0 	0 	
0.915 -7.7151e-14 	0 	0 	
0.925 -4.40862e-14 	0 	0 	
0.935 9.91941e-14 	0 	0 	
0.945 6.61294e-14 	0 	0 	
0.955 7.7151e-14 	0 	0 	
0.965 7.7151e-14 	0 	0 	
0.975 7.71511e-14 	0 	0 	
0.985 1.10218e-14 	0 	0 	
0.995 -1.10216e-14 	0 	0 	
