0.005 -1.26748e-14 	0 	0 	
0.015 -2.95746e-14 	0 	0 	
0.025 5.91491e-14 	0 	0 	
0.035 8.44987e-15 	0 	0 	
0.045 9.29486e-14 	0 	0 	
0.055 1.43648e-13 	0 	0 	
0.065 -1.26748e-14 	-6.8014e-30 	0 	
0.075 2.53496e-14 	0 	0 	
0.085 -4.22494e-15 	0 	0 	
0.095 -2.11247e-14 	0 	0 	
0.105 -5.49242e-14 	0 	0 	
0.115 5.91491e-14 	0 	0 	
0.125 1.01399e-13 	0 	0 	
0.135 5.91491e-14 	0 	0 	
0.145 -8.44988e-14 	0 	0 	
0.155 5.49242e-14 	0 	0 	
0.165 1.05623e-13 	0 	0 	
0.175 6.33741e-14 	0 	0 	
0.185 3.80244e-14 	0 	0 	
0.195 -4.22494e-14 	0 	0 	
0.205 -5.06992e-14 	0 	0 	
0.215 -2.11247e-14 	0 	0 	
0.225 4.22494e-15 	0 	0 	
0.235 -1.05623e-13 	0 	0 	
0.245 -4.64743e-14 	0 	0 	
0.255 -4.64743e-14 	0 	0 	
0.265 -8.87237e-14 	0 	0 	
0.275 -7.18239e-14 	0 	0 	
0.285 2.53496e-14 	0 	0 	
0.295 8.81467e-25 	0 	0 	
0.305 1.39423e-13 	0 	0 	
0.315 5.49242e-14 	0 	0 	
0.325 3.98572e-10 	0 	0 	
0.335 1.69323e-07 	0 	0 	
0.345 1.99756e-05 	0 	0 	
0.355 0.000918902 	0 	0 	
0.365 0.0203994 	0 	0 	
0.375 0.236453 	0 	0 	
0.385 1.5042 	0 	0 	
0.395 5.78119 	0 	0 	
0.405 15.0634 	0 	0 	
0.415 29.7323 	0 	0 	
0.425 48.6781 	0 	0 	
0.435 70.2955 	0 	0 	
0.445 92.7023 	9.34988e-31 	0 	
0.455 112.934 	6.67764e-31 	0 	
0.465 126.07 	0 	0 	
0.475 129.954 	0 	0 	
0.485 130.198 	5.30695e-31 	0 	
0.495 130.171 	0 	0 	
0.505 130.149 	0 	0 	
0.515 130.132 	1.77287e-31 	0 	
0.525 130.118 	0 	0 	
0.535 130.105 	0 	0 	
0.545 130.093 	0 	0 	
0.555 130.081 	-4.84341e-30 	0 	
0.565 130.067 	0 	0 	
0.575 130.048 	0 	0 	
0.585 129.989 	0 	0 	
0.595 129.319 	0 	0 	
0.605 114.572 	0 	0 	
0.615 85.4675 	-9.21789e-31 	0 	
0.625 29.1199 	0 	0 	
0.635 1.60996 	0 	0 	
0.645 0.0422039 	0 	0 	
0.655 0.000656825 	0 	0 	
0.665 4.65319e-06 	0 	0 	
0.675 1.06028e-08 	0 	0 	
0.685 5.01922e-12 	0 	0 	
0.695 5.06992e-14 	0 	0 	
0.705 -6.02053e-14 	0 	0 	
0.715 6.33744e-15 	0 	0 	
0.725 1.96459e-13 	5.62874e-30 	0 	
0.735 2.21808e-14 	0 	0 	
0.745 -9.5061e-15 	0 	0 	
0.755 -1.17242e-13 	0 	0 	
0.765 -3.48555e-14 	-1.5479e-29 	0 	
0.775 1.26749e-14 	0 	0 	
0.785 -2.81437e-29 	0 	0 	
0.795 -1.90122e-14 	0 	0 	
0.805 -3.16856e-15 	0 	0 	
0.815 -4.43616e-14 	8.44311e-30 	0 	
0.825 3.48557e-14 	3.86976e-30 	0 	
0.835 -3.48559e-14 	0 	0 	
0.845 6.65427e-14 	0 	0 	
0.855 6.33727e-15 	0 	0 	
0.865 9.50594e-15 	0 	0 	
0.875 1.20411e-13 	0 	0 	
0.885 8.87232e-14 	0 	0 	
0.895 3.48557e-14 	0 	0 	
0.905 9.82298e-14 	0 	0 	
0.915 -1.14074e-13 	0 	0 	
0.925 -1.58433e-14 	0 	0 	
0.935 3.48554e-14 	0 	0 	
0.945 -3.16869e-14 	0 	0 	
0.955 6.33737e-15 	0 	0 	
0.965 6.97112e-14 	0 	0 	
0.975 -3.16883e-15 	0 	0 	
0.985 -3.48557e-14 	0 	0 	
0.995 6.33737e-15 	0 	0 	
