0.005 3.4681e-12 	0 	0 	
0.015 -1.76345e-13 	0 	0 	
0.025 3.70323e-12 	0 	0 	
0.035 9.9341e-12 	0 	0 	
0.045 9.05236e-12 	0 	0 	
0.055 2.3515e-13 	0 	0 	
0.065 1.41076e-12 	0 	0 	
0.075 1.70465e-12 	0 	0 	
0.085 6.28965e-12 	0 	0 	
0.095 8.11185e-12 	0 	0 	
0.105 3.9384e-12 	0 	0 	
0.115 -6.1721e-12 	0 	0 	
0.125 1.88104e-12 	0 	0 	
0.135 5.875e-14 	0 	0 	
0.145 -3.23302e-12 	0 	0 	
0.155 -2.93909e-12 	0 	0 	
0.165 -5.878e-14 	0 	0 	
0.175 -1.6459e-12 	0 	0 	
0.185 9.405e-13 	0 	0 	
0.195 1.176e-13 	0 	0 	
0.205 -7.642e-13 	0 	0 	
0.215 7.6415e-13 	0 	0 	
0.225 5.88e-14 	0 	0 	
0.235 9.58143e-12 	0 	0 	
0.245 4.70255e-12 	0 	0 	
0.255 -5.878e-14 	0 	0 	
0.265 9.40506e-12 	0 	0 	
0.275 7.6416e-13 	0 	0 	
0.285 7.0538e-13 	0 	0 	
0.295 -5.878e-13 	0 	0 	
0.305 5.29035e-12 	0 	0 	
0.315 2.41005e-12 	0 	0 	
0.325 -6.34842e-12 	0 	0 	
0.335 5.46671e-12 	0 	0 	
0.345 8.229e-13 	0 	0 	
0.355 -1.46956e-12 	0 	0 	
0.365 -1.11686e-12 	0 	0 	
0.375 -3.11545e-12 	0 	0 	
0.385 -4.70245e-13 	0 	0 	
0.395 1.9398e-12 	0 	0 	
0.405 1.2932e-12 	0 	0 	
0.415 -1.9398e-12 	0 	0 	
0.425 -1.23445e-12 	0 	0 	
0.435 3.46813e-12 	0 	0 	
0.445 -5.93696e-12 	0 	0 	
0.455 -2.52765e-12 	0 	0 	
0.465 -2.8803e-12 	0 	0 	
0.475 3.70325e-12 	0 	0 	
0.485 -1.58711e-12 	0 	0 	
0.495 -1481.45 	0 	0 	
0.505 902.722 	0 	0 	
0.515 -5.33445e-12 	0 	0 	
0.525 -3.04195e-12 	0 	0 	
0.535 5.59896e-12 	0 	0 	
0.545 1.2344e-12 	0 	0 	
0.555 4.8495e-13 	0 	0 	
0.565 2.9979e-12 	0 	0 	
0.575 -3.2183e-12 	0 	0 	
0.585 -6.0398e-12 	0 	0 	
0.595 2.46883e-12 	0 	0 	
0.605 -3.35055e-12 	0 	0 	
0.615 -7.9355e-12 	0 	0 	
0.625 3.04195e-12 	0 	0 	
0.635 -4.76135e-12 	0 	0 	
0.645 3.48282e-12 	0 	0 	
0.655 5.90755e-12 	0 	0 	
0.665 7.18606e-12 	0 	0 	
0.675 2.204e-13 	0 	0 	
0.685 -4.1441e-12 	0 	0 	
0.695 -8.15597e-12 	0 	0 	
0.705 -9.74306e-12 	0 	0 	
0.715 2.2484e-12 	0 	0 	
0.725 -1.06689e-11 	0 	0 	
0.735 3.08605e-12 	0 	0 	
0.745 8.3765e-13 	0 	0 	
0.755 -4.1441e-12 	0 	0 	
0.765 1.21678e-11 	0 	0 	
0.775 -8.8175e-14 	0 	0 	
0.785 7.05385e-12 	0 	0 	
0.795 9.83125e-12 	0 	0 	
0.805 4.3205e-12 	0 	0 	
0.815 -4.8936e-12 	0 	0 	
0.825 6.48069e-12 	0 	0 	
0.835 -7.9355e-13 	0 	0 	
0.845 -4.67314e-12 	0 	0 	
0.855 -6.65705e-12 	0 	0 	
0.865 -9.78714e-12 	0 	0 	
0.875 -1.3667e-12 	0 	0 	
0.885 -5.59894e-12 	0 	0 	
0.895 1.8516e-12 	0 	0 	
0.905 -3.21831e-12 	0 	0 	
0.915 -1.23442e-12 	0 	0 	
0.925 1.01398e-12 	0 	0 	
0.935 5.1581e-12 	0 	0 	
0.945 -4.58497e-12 	0 	0 	
0.955 4.14411e-12 	0 	0 	
0.965 6.7893e-12 	0 	0 	
0.975 -2.9097e-12 	0 	0 	
0.985 1.85165e-12 	0 	0 	
0.995 -2.4406e-23 	0 	0 	
