0.005 5.69595e-14 	0 	0 	
0.015 -5.52844e-14 	0 	0 	
0.025 8.37642e-14 	0 	0 	
0.035 9.71664e-14 	0 	0 	
0.045 -4.52329e-14 	0 	0 	
0.055 1.50777e-14 	0 	0 	
0.065 1.27321e-13 	0 	0 	
0.075 -5.02582e-14 	0 	0 	
0.085 -8.87899e-14 	0 	0 	
0.095 1.00516e-14 	0 	0 	
0.105 3.51809e-14 	0 	0 	
0.115 -4.18821e-14 	0 	0 	
0.125 -8.37645e-15 	0 	0 	
0.135 -1.2062e-13 	0 	0 	
0.145 -1.00515e-14 	0 	0 	
0.155 -1.34023e-14 	0 	0 	
0.165 3.6856e-14 	0 	0 	
0.175 -8.3764e-14 	0 	0 	
0.185 4.69079e-14 	0 	0 	
0.195 -1.27321e-13 	0 	0 	
0.205 1.37373e-13 	0 	0 	
0.215 -3.0155e-14 	0 	0 	
0.225 -9.21406e-14 	0 	0 	
0.235 -6.53357e-14 	0 	0 	
0.245 5.36091e-14 	0 	0 	
0.255 1.05542e-13 	0 	0 	
0.265 5.02583e-15 	0 	0 	
0.275 8.37638e-15 	0 	0 	
0.285 -3.01551e-14 	0 	0 	
0.295 -1.3402e-14 	0 	0 	
0.305 -9.04652e-14 	0 	0 	
0.315 -6.86862e-14 	0 	0 	
0.325 1.00517e-13 	0 	0 	
0.335 -1.34022e-13 	0 	0 	
0.345 3.18302e-14 	0 	0 	
0.355 3.18305e-14 	0 	0 	
0.365 6.03103e-14 	0 	0 	
0.375 -1.00517e-13 	0 	0 	
0.385 4.52326e-14 	0 	0 	
0.395 1.67545e-15 	0 	0 	
0.405 7.70632e-14 	0 	0 	
0.415 2.0613e-05 	0 	0 	
0.425 0.00786795 	0 	0 	
0.435 0.353358 	0 	0 	
0.445 4.22811 	0 	0 	
0.455 19.3273 	0 	0 	
0.465 49.3089 	2.73073e-31 	0 	
0.475 88.9107 	0 	0 	
0.485 122.124 	0 	0 	
0.495 130.158 	0 	0 	
0.505 130.182 	0 	0 	
0.515 130.137 	0 	0 	
0.525 130.084 	0 	0 	
0.535 129.61 	0 	0 	
0.545 122.189 	0 	0 	
0.555 74.3098 	0 	0 	
0.565 7.0122 	0 	0 	
0.575 0.0861886 	0 	0 	
0.585 0.000141177 	0 	0 	
0.595 -6.40796e-14 	0 	0 	
0.605 2.63857e-14 	0 	0 	
0.615 -3.39245e-14 	0 	0 	
0.625 1.88468e-14 	0 	0 	
0.635 -1.88472e-14 	0 	0 	
0.645 -3.5181e-14 	0 	0 	
0.655 -3.14114e-14 	0 	0 	
0.665 1.89726e-13 	0 	0 	
0.675 -8.16695e-14 	0 	0 	
0.685 -6.65923e-14 	0 	0 	
0.695 -1.13081e-14 	0 	0 	
0.705 -8.54392e-14 	0 	0 	
0.715 -5.0258e-14 	0 	0 	
0.725 -6.91053e-14 	0 	0 	
0.735 -2.26164e-14 	0 	0 	
0.745 6.031e-14 	0 	0 	
0.755 8.79522e-15 	0 	0 	
0.765 -2.01035e-14 	0 	0 	
0.775 -2.51295e-14 	0 	0 	
0.785 4.14633e-14 	0 	0 	
0.795 -5.27712e-14 	0 	0 	
0.805 1.88469e-14 	0 	0 	
0.815 -7.53875e-15 	0 	0 	
0.825 -6.2825e-15 	0 	0 	
0.835 -2.13601e-14 	0 	0 	
0.845 7.53852e-15 	0 	0 	
0.855 -5.90535e-14 	0 	0 	
0.865 7.66443e-14 	0 	0 	
0.875 6.91052e-14 	0 	0 	
0.885 4.52326e-14 	0 	0 	
0.895 -8.16701e-14 	0 	0 	
0.905 9.2978e-14 	0 	0 	
0.915 2.63859e-14 	0 	0 	
0.925 -3.76938e-14 	0 	0 	
0.935 -9.42345e-14 	0 	0 	
0.945 -1.13083e-14 	0 	0 	
0.955 3.39244e-14 	0 	0 	
0.965 -3.76937e-15 	0 	0 	
0.975 1.25646e-14 	0 	0 	
0.985 3.89503e-14 	0 	0 	
0.995 -4.64892e-14 	0 	0 	
