0.005 1.05807e-13 	0 	0 	
0.015 -1.41076e-13 	0 	0 	
0.025 1.3161e-24 	0 	0 	
0.035 2.6322e-24 	0 	0 	
0.045 -7.0538e-14 	0 	0 	
0.055 3.5269e-14 	0 	0 	
0.065 1.05807e-13 	0 	0 	
0.075 1.76345e-13 	0 	0 	
0.085 -7.05381e-14 	0 	0 	
0.095 5.26511e-24 	0 	0 	
0.105 -3.5269e-14 	0 	0 	
0.115 -1.05807e-13 	0 	0 	
0.125 1.05807e-13 	-2.08019e-30 	0 	
0.135 -1.05807e-13 	0 	0 	
0.145 -1.76345e-13 	0 	0 	
0.155 -3.5269e-14 	0 	0 	
0.165 1.05807e-13 	0 	0 	
0.175 -2.82152e-13 	-4.4051e-30 	0 	
0.185 7.05385e-14 	-4.16038e-30 	0 	
0.195 2.11614e-13 	0 	0 	
0.205 7.0538e-14 	0 	0 	
0.215 1.76345e-13 	0 	0 	
0.225 -1.31501e-24 	0 	0 	
0.235 -1.41076e-13 	0 	0 	
0.245 1.41076e-13 	0 	0 	
0.255 -3.52689e-14 	-4.89455e-30 	0 	
0.265 3.5269e-14 	-4.89455e-30 	0 	
0.275 2.11614e-13 	0 	0 	
0.285 -1.76345e-13 	0 	0 	
0.295 -1.05807e-13 	0 	0 	
0.305 -7.0538e-14 	0 	0 	
0.315 -1.26218e-29 	0 	0 	
0.325 1.41076e-13 	0 	0 	
0.335 -1.41076e-13 	0 	0 	
0.345 3.52691e-14 	0 	0 	
0.355 3.93639e-24 	-4.4051e-30 	0 	
0.365 3.5269e-14 	0 	0 	
0.375 7.0538e-14 	0 	0 	
0.385 -7.0538e-14 	0 	0 	
0.395 4.12957e-08 	0 	0 	
0.405 0.00013702 	0 	0 	
0.415 0.0188049 	4.89475e-30 	0 	
0.425 0.518387 	4.6555e-30 	0 	
0.435 4.5856 	-2.22885e-30 	0 	
0.445 18.1769 	4.11744e-30 	0 	
0.455 43.4801 	1.10996e-30 	0 	
0.465 76.8965 	1.53938e-30 	0 	
0.475 110.374 	0 	0 	
0.485 128.437 	1.83313e-31 	0 	
0.495 130.208 	1.84841e-31 	0 	
0.505 130.168 	-1.85096e-31 	0 	
0.515 130.127 	0 	0 	
0.525 130.079 	0 	0 	
0.535 130.006 	0 	0 	
0.545 128.752 	0 	0 	
0.555 81.9013 	0 	0 	
0.565 -122.26 	0 	0 	
0.575 19.5131 	0 	0 	
0.585 0.313958 	0 	0 	
0.595 0.00131033 	0 	0 	
0.605 2.52731e-07 	0 	0 	
0.615 2.64517e-14 	0 	0 	
0.625 -5.29035e-14 	0 	0 	
0.635 -2.90969e-13 	0 	0 	
0.645 1.58711e-13 	0 	0 	
0.655 -1.05807e-13 	0 	0 	
0.665 2.64518e-14 	0 	0 	
0.675 2.94438e-24 	0 	0 	
0.685 1.05807e-13 	0 	0 	
0.695 -7.93553e-14 	0 	0 	
0.705 5.29035e-14 	0 	0 	
0.715 2.64517e-14 	0 	0 	
0.725 -1.05807e-13 	0 	0 	
0.735 -1.58711e-13 	0 	0 	
0.745 -1.58711e-13 	0 	0 	
0.755 -2.6452e-14 	0 	0 	
0.765 -5.29035e-14 	0 	0 	
0.775 -1.32259e-13 	0 	0 	
0.785 -1.05807e-13 	0 	0 	
0.795 2.11614e-13 	0 	0 	
0.805 1.85162e-13 	0 	0 	
0.815 7.93553e-14 	0 	0 	
0.825 7.93552e-14 	0 	0 	
0.835 8.80139e-24 	0 	0 	
0.845 -5.29035e-14 	0 	0 	
0.855 -2.64515e-14 	0 	0 	
0.865 1.5871e-13 	0 	0 	
0.875 5.29035e-14 	0 	0 	
0.885 2.11614e-13 	0 	0 	
0.895 -1.95586e-24 	0 	0 	
0.905 2.64515e-14 	0 	0 	
0.915 -1.58711e-13 	0 	0 	
0.925 -2.64515e-14 	0 	0 	
0.935 9.77908e-25 	0 	0 	
0.945 -1.9523e-24 	0 	0 	
0.955 1.05807e-13 	0 	0 	
0.965 -2.9285e-24 	0 	0 	
0.975 5.29035e-14 	0 	0 	
0.985 -5.29035e-14 	0 	0 	
0.995 7.93553e-14 	0 	0 	
