0.005 1.06249e-13 	0 	0 	
0.015 4.77449e-14 	0 	0 	
0.025 -2.01738e-14 	0 	0 	
0.035 2.01739e-15 	0 	0 	
0.045 7.59881e-14 	0 	0 	
0.055 6.7246e-14 	0 	0 	
0.065 6.05214e-15 	0 	0 	
0.075 5.04346e-14 	0 	0 	
0.085 1.27769e-14 	0 	0 	
0.095 -5.58142e-14 	0 	0 	
0.105 -2.01738e-15 	0 	0 	
0.115 -4.10204e-14 	8.63238e-30 	0 	
0.125 -1.0087e-13 	0 	0 	
0.135 -4.03462e-15 	0 	0 	
0.145 -3.76579e-14 	0 	0 	
0.155 -6.72463e-14 	0 	0 	
0.165 -6.59013e-14 	0 	0 	
0.175 3.3623e-14 	0 	0 	
0.185 -3.3623e-14 	0 	0 	
0.195 8.06922e-15 	0 	0 	
0.205 -1.08267e-13 	0 	0 	
0.215 -1.64753e-13 	0 	0 	
0.225 -7.73333e-14 	0 	0 	
0.235 -4.77451e-14 	0 	0 	
0.245 7.73332e-14 	0 	0 	
0.255 1.49287e-13 	0 	0 	
0.265 8.33853e-14 	0 	0 	
0.275 -8.06956e-14 	0 	0 	
0.285 -6.79185e-14 	0 	0 	
0.295 -9.34725e-14 	0 	0 	
0.305 -5.71594e-14 	0 	0 	
0.315 6.18666e-13 	0 	0 	
0.325 8.9862e-10 	0 	0 	
0.335 3.10678e-07 	0 	0 	
0.345 3.1727e-05 	0 	0 	
0.355 0.00130409 	0 	0 	
0.365 0.0270211 	0 	0 	
0.375 0.29043 	0 	0 	
0.385 1.73888 	0 	0 	
0.395 6.39865 	0 	0 	
0.405 16.1744 	0 	0 	
0.415 31.2476 	0 	0 	
0.425 50.4651 	0 	0 	
0.435 72.2169 	0 	0 	
0.445 94.5543 	0 	0 	
0.455 114.39 	0 	0 	
0.465 126.734 	0 	0 	
0.475 130.02 	0 	0 	
0.485 130.197 	0 	0 	
0.495 130.169 	0 	0 	
0.505 130.148 	0 	0 	
0.515 130.131 	0 	0 	
0.525 130.117 	0 	0 	
0.535 130.105 	0 	0 	
0.545 130.093 	0 	0 	
0.555 130.081 	0 	0 	
0.565 130.069 	0 	0 	
0.575 130.05 	0 	0 	
0.585 129.964 	0 	0 	
0.595 129.639 	0 	0 	
0.605 122.65 	0 	0 	
0.615 94.1063 	0 	0 	
0.625 24.7047 	0 	0 	
0.635 1.24582 	0 	0 	
0.645 0.0314705 	0 	0 	
0.655 0.000486687 	0 	0 	
0.665 3.37857e-06 	0 	0 	
0.675 7.42218e-09 	0 	0 	
0.685 3.68728e-12 	0 	0 	
0.695 3.88347e-14 	0 	0 	
0.705 -5.04347e-14 	0 	0 	
0.715 -2.52171e-14 	0 	0 	
0.725 -1.51305e-14 	0 	0 	
0.735 -3.17738e-14 	0 	0 	
0.745 1.81563e-14 	0 	0 	
0.755 -2.52172e-14 	0 	0 	
0.765 -1.46261e-14 	0 	0 	
0.775 -7.06085e-14 	0 	0 	
0.785 -7.76692e-14 	0 	0 	
0.795 2.42089e-14 	0 	0 	
0.805 -2.11826e-14 	0 	0 	
0.815 -6.90951e-14 	0 	0 	
0.825 9.07825e-14 	0 	0 	
0.835 3.12697e-14 	0 	0 	
0.845 2.47132e-14 	0 	0 	
0.855 4.74086e-14 	0 	0 	
0.865 5.90084e-14 	0 	0 	
0.875 1.13478e-13 	0 	0 	
0.885 1.48782e-13 	0 	0 	
0.895 -1.76288e-24 	0 	0 	
0.905 -2.57216e-14 	0 	0 	
0.915 -9.58259e-15 	0 	0 	
0.925 -4.79132e-14 	0 	0 	
0.935 2.52172e-15 	0 	0 	
0.945 6.05216e-15 	0 	0 	
0.955 -8.12e-14 	0 	0 	
0.965 -2.72344e-14 	0 	0 	
0.975 -5.54783e-14 	0 	0 	
0.985 -9.02782e-14 	0 	0 	
0.995 1.08435e-13 	0 	0 	
