0.005 -1.41217e-14 	0 	0 	
0.015 1.64754e-13 	0 	0 	
0.025 1.0087e-14 	0 	0 	
0.035 1.97704e-13 	0 	0 	
0.045 2.48813e-14 	0 	0 	
0.055 7.80059e-14 	0 	0 	
0.065 2.48813e-14 	0 	0 	
0.075 -7.06088e-14 	0 	0 	
0.085 -6.05215e-14 	0 	0 	
0.095 5.5142e-14 	0 	0 	
0.105 1.95013e-14 	0 	0 	
0.115 -1.12302e-13 	6.76592e-30 	0 	
0.125 -1.0087e-13 	0 	0 	
0.135 -4.03465e-15 	0 	0 	
0.145 -2.01739e-15 	0 	0 	
0.155 -2.21914e-14 	0 	0 	
0.165 3.36233e-14 	0 	0 	
0.175 -1.61391e-13 	0 	0 	
0.185 -1.2575e-13 	0 	0 	
0.195 -4.63999e-14 	0 	0 	
0.205 -3.36233e-14 	0 	0 	
0.215 2.01739e-15 	0 	0 	
0.225 -1.00869e-14 	0 	0 	
0.235 1.07596e-14 	0 	0 	
0.245 8.67478e-14 	0 	0 	
0.255 1.47944e-14 	0 	0 	
0.265 -5.31243e-14 	0 	0 	
0.275 6.72464e-14 	0 	0 	
0.285 -6.38842e-14 	0 	0 	
0.295 1.61389e-14 	0 	0 	
0.305 8.00231e-14 	0 	0 	
0.315 5.78316e-14 	0 	0 	
0.325 -1.34496e-14 	0 	0 	
0.335 -4.63997e-14 	0 	0 	
0.345 1.21716e-13 	0 	0 	
0.355 4.96709e-10 	0 	0 	
0.365 6.2855e-07 	0 	0 	
0.375 0.000117857 	0 	0 	
0.385 0.00618039 	0 	0 	
0.395 0.126575 	0 	0 	
0.405 1.20596 	0 	0 	
0.415 5.85541 	0 	0 	
0.425 17.2027 	0 	0 	
0.435 35.9947 	0 	0 	
0.445 60.3983 	0 	0 	
0.455 87.4422 	0 	0 	
0.465 112.451 	0 	0 	
0.475 127.24 	0 	0 	
0.485 130.152 	0 	0 	
0.495 130.19 	0 	0 	
0.505 130.16 	0 	0 	
0.515 130.136 	0 	0 	
0.525 130.117 	0 	0 	
0.535 130.098 	0 	0 	
0.545 130.081 	0 	0 	
0.555 130.054 	0 	0 	
0.565 129.902 	0 	0 	
0.575 127.564 	0 	0 	
0.585 111.826 	0 	0 	
0.595 56.9524 	0 	0 	
0.605 5.05295 	0 	0 	
0.615 0.12844 	0 	0 	
0.625 0.0015011 	0 	0 	
0.635 5.56213e-06 	0 	0 	
0.645 3.28336e-09 	0 	0 	
0.655 8.37213e-14 	0 	0 	
0.665 -2.42087e-14 	0 	0 	
0.675 1.08434e-13 	0 	0 	
0.685 4.13565e-14 	0 	0 	
0.695 5.04345e-14 	0 	0 	
0.705 1.41218e-14 	0 	0 	
0.715 -7.31304e-14 	0 	0 	
0.725 1.26089e-14 	0 	0 	
0.735 5.04347e-14 	0 	0 	
0.745 -2.92519e-14 	0 	0 	
0.755 -1.15495e-13 	0 	0 	
0.765 1.8661e-14 	0 	0 	
0.775 -1.13478e-13 	0 	0 	
0.785 -2.57218e-14 	0 	0 	
0.795 9.98609e-14 	0 	0 	
0.805 -6.75826e-14 	0 	0 	
0.815 -3.42957e-14 	0 	0 	
0.825 1.00869e-13 	0 	0 	
0.835 6.05216e-15 	0 	0 	
0.845 -3.27823e-14 	0 	0 	
0.855 2.67305e-14 	0 	0 	
0.865 9.53212e-14 	0 	0 	
0.875 7.56522e-14 	0 	0 	
0.885 1.34661e-13 	0 	0 	
0.895 -5.34606e-14 	0 	0 	
0.905 -8.81437e-25 	0 	0 	
0.915 3.53055e-15 	0 	0 	
0.925 -5.29568e-14 	0 	0 	
0.935 -9.43126e-14 	0 	0 	
0.945 -2.52171e-14 	0 	0 	
0.955 -1.3113e-14 	0 	0 	
0.965 4.94263e-14 	0 	0 	
0.975 -1.26087e-14 	0 	0 	
0.985 1.46261e-14 	0 	0 	
0.995 3.63133e-14 	0 	0 	
