0.005 2.42475e-14 	0 	0 	
0.015 3.6436e-22 	0 	0 	
0.025 -1.61651e-14 	0 	0 	
0.035 -5.8767e-26 	0 	0 	
0.045 -4.84949e-14 	0 	0 	
0.055 4.84946e-14 	0 	0 	
0.065 1.21237e-13 	0 	0 	
0.075 -3.23301e-14 	0 	0 	
0.085 -1.05072e-13 	0 	0 	
0.095 3.233e-14 	0 	0 	
0.105 3.23301e-14 	0 	0 	
0.115 3.233e-14 	0 	0 	
0.125 1.45485e-13 	0 	0 	
0.135 4.04125e-14 	0 	0 	
0.145 8.08234e-15 	0 	0 	
0.155 -1.13155e-13 	0 	0 	
0.165 4.84946e-14 	0 	0 	
0.175 3.92737e-20 	0 	0 	
0.185 5.65776e-14 	0 	0 	
0.195 -4.8495e-14 	0 	0 	
0.205 8.89074e-14 	0 	0 	
0.215 1.6165e-14 	0 	0 	
0.225 4.84951e-14 	0 	0 	
0.235 -2.42475e-14 	0 	0 	
0.245 4.04125e-14 	0 	0 	
0.255 -7.27426e-14 	0 	0 	
0.265 -1.13155e-13 	0 	0 	
0.275 8.08249e-15 	0 	0 	
0.285 1.117e-11 	0 	0 	
0.295 2.91756e-09 	0 	0 	
0.305 3.07746e-07 	0 	0 	
0.315 1.65994e-05 	8.30036e-30 	0 	
0.325 0.000481625 	0 	0 	
0.335 0.00821745 	-7.62757e-30 	0 	
0.345 0.0848146 	0 	0 	
0.355 0.552595 	-4.04515e-30 	0 	
0.365 2.35613 	1.53566e-29 	0 	
0.375 6.98499 	0 	0 	
0.385 15.5435 	1.64363e-30 	0 	
0.395 28.0572 	0 	0 	
0.405 43.7491 	3.83853e-30 	0 	
0.415 61.5912 	0 	0 	
0.425 80.5195 	-8.61622e-31 	0 	
0.435 99.2226 	0 	0 	
0.445 115.54 	-1.93043e-30 	0 	
0.455 126.161 	-3.00733e-30 	0 	
0.465 129.799 	-3.03977e-30 	0 	
0.475 130.195 	0 	0 	
0.485 130.178 	0 	0 	
0.495 130.157 	-1.09991e-30 	0 	
0.505 130.141 	-9.31019e-31 	0 	
0.515 130.128 	0 	0 	
0.525 130.118 	0 	0 	
0.535 130.108 	0 	0 	
0.545 130.099 	0 	0 	
0.555 130.091 	0 	0 	
0.565 130.082 	0 	0 	
0.575 130.073 	0 	0 	
0.585 130.064 	0 	0 	
0.595 130.051 	0 	0 	
0.605 130.003 	0 	0 	
0.615 129.643 	0 	0 	
0.625 127.139 	0 	0 	
0.635 113.025 	0 	0 	
0.645 61.9499 	0 	0 	
0.655 8.36098 	0 	0 	
0.665 0.402985 	0 	0 	
0.675 0.0132161 	0 	0 	
0.685 0.000298706 	0 	0 	
0.695 4.00891e-06 	0 	0 	
0.705 2.96714e-08 	0 	0 	
0.715 9.32617e-11 	0 	0 	
0.725 1.33361e-13 	0 	0 	
0.735 1.09114e-13 	0 	0 	
0.745 3.63712e-14 	0 	0 	
0.755 1.21238e-14 	0 	0 	
0.765 1.03052e-13 	0 	0 	
0.775 -6.06186e-14 	0 	0 	
0.785 9.69895e-14 	0 	0 	
0.795 4.84951e-14 	0 	0 	
0.805 6.06188e-14 	0 	0 	
0.815 9.699e-14 	0 	0 	
0.825 -1.21239e-14 	0 	0 	
0.835 6.06186e-15 	0 	0 	
0.845 -2.42475e-14 	0 	0 	
0.855 -3.03093e-14 	0 	0 	
0.865 4.24332e-14 	0 	0 	
0.875 -3.03095e-14 	0 	0 	
0.885 -8.48659e-14 	0 	0 	
0.895 3.03094e-14 	0 	0 	
0.905 1.21237e-14 	0 	0 	
0.915 -1.21238e-14 	0 	0 	
0.925 -1.21237e-14 	0 	0 	
0.935 -6.06187e-14 	0 	0 	
0.945 -4.84951e-14 	0 	0 	
0.955 -6.06186e-15 	0 	0 	
0.965 -4.84949e-14 	0 	0 	
0.975 1.81857e-14 	0 	0 	
0.985 5.92244e-29 	0 	0 	
0.995 -7.88041e-14 	0 	0 	
