0.005 -2.42087e-14 	0 	0 	
0.015 3.90029e-14 	0 	0 	
0.025 5.37969e-14 	0 	0 	
0.035 -5.8793e-26 	0 	0 	
0.045 8.74198e-15 	0 	0 	
0.055 -1.27768e-14 	0 	0 	
0.065 -6.05217e-15 	0 	0 	
0.075 4.03476e-14 	0 	0 	
0.085 -3.49679e-14 	0 	0 	
0.095 -5.64871e-14 	0 	0 	
0.105 6.7246e-14 	0 	0 	
0.115 -1.15664e-13 	1.23653e-29 	0 	
0.125 -8.40579e-14 	0 	0 	
0.135 5.64868e-14 	0 	0 	
0.145 -1.30458e-13 	0 	0 	
0.155 -1.23061e-13 	0 	0 	
0.165 -1.10284e-13 	0 	0 	
0.175 -1.24406e-13 	0 	0 	
0.185 -1.92997e-13 	0 	0 	
0.195 2.68984e-15 	0 	0 	
0.205 9.34726e-14 	0 	0 	
0.215 -1.17529e-24 	0 	0 	
0.225 7.06085e-14 	0 	0 	
0.235 -5.37968e-15 	0 	0 	
0.245 -1.20371e-13 	0 	0 	
0.255 9.66999e-13 	0 	0 	
0.265 2.92988e-10 	0 	0 	
0.275 3.29473e-08 	0 	0 	
0.285 1.84659e-06 	0 	0 	
0.295 6.342e-05 	0 	0 	
0.305 0.00127845 	0 	0 	
0.315 0.0158772 	0 	0 	
0.325 0.128274 	0 	0 	
0.335 0.695133 	0 	0 	
0.345 2.57808 	0 	0 	
0.355 6.94566 	0 	0 	
0.365 14.5852 	0 	0 	
0.375 25.4246 	0 	0 	
0.385 38.8465 	0 	0 	
0.395 54.0969 	0 	0 	
0.405 70.455 	0 	0 	
0.415 87.1813 	0 	0 	
0.425 103.301 	0 	0 	
0.435 117.14 	0 	0 	
0.445 126.244 	0 	0 	
0.455 129.686 	0 	0 	
0.465 130.183 	0 	0 	
0.475 130.179 	0 	0 	
0.485 130.159 	0 	0 	
0.495 130.144 	0 	0 	
0.505 130.132 	0 	0 	
0.515 130.122 	0 	0 	
0.525 130.114 	0 	0 	
0.535 130.106 	0 	0 	
0.545 130.099 	0 	0 	
0.555 130.091 	0 	0 	
0.565 130.083 	0 	0 	
0.575 130.073 	0 	0 	
0.585 130.06 	0 	0 	
0.595 130.043 	0 	0 	
0.605 130.014 	0 	0 	
0.615 129.979 	0 	0 	
0.625 129.918 	0 	0 	
0.635 129.312 	0 	0 	
0.645 128.265 	0 	0 	
0.655 122.702 	0 	0 	
0.665 107.651 	0 	0 	
0.675 27.3591 	0 	0 	
0.685 1.81712 	0 	0 	
0.695 0.0693217 	0 	0 	
0.705 0.0019442 	0 	0 	
0.715 3.6985e-05 	0 	0 	
0.725 4.83429e-07 	0 	0 	
0.735 3.33352e-09 	0 	0 	
0.745 9.93817e-12 	0 	0 	
0.755 -5.04345e-14 	0 	0 	
0.765 -9.07838e-15 	0 	0 	
0.775 -2.26954e-14 	0 	0 	
0.785 -1.22052e-13 	0 	0 	
0.795 -5.54798e-15 	0 	0 	
0.805 4.28696e-14 	0 	0 	
0.815 -8.81463e-25 	0 	0 	
0.825 1.00866e-14 	0 	0 	
0.835 2.87477e-14 	0 	0 	
0.845 -9.07863e-15 	0 	0 	
0.855 -3.0261e-15 	0 	0 	
0.865 -6.25389e-14 	0 	0 	
0.875 -1.26085e-14 	0 	0 	
0.885 4.23653e-14 	0 	0 	
0.895 -2.21913e-14 	0 	0 	
0.905 -9.1791e-14 	0 	0 	
0.915 5.29561e-14 	0 	0 	
0.925 5.0435e-15 	0 	0 	
0.935 8.7252e-14 	0 	0 	
0.945 1.276e-13 	0 	0 	
0.955 -3.83302e-14 	0 	0 	
0.965 7.46438e-14 	0 	0 	
0.975 5.29563e-14 	0 	0 	
0.985 3.58086e-14 	0 	0 	
0.995 -1.15495e-13 	0 	0 	
