0.005 -5.02584e-15 	0 	0 	
0.015 -6.03102e-14 	0 	0 	
0.025 1.67528e-13 	0 	0 	
0.035 -7.03616e-14 	0 	0 	
0.045 2.17786e-14 	0 	0 	
0.055 6.70115e-14 	0 	0 	
0.065 1.5245e-13 	0 	0 	
0.075 5.86346e-14 	0 	0 	
0.085 -6.7011e-14 	0 	0 	
0.095 1.00517e-14 	0 	0 	
0.105 -9.54911e-14 	0 	0 	
0.115 3.35056e-15 	0 	0 	
0.125 6.7011e-14 	0 	0 	
0.135 -1.59152e-13 	0 	0 	
0.145 8.87896e-14 	0 	0 	
0.155 -2.17789e-14 	0 	0 	
0.165 1.22296e-13 	0 	0 	
0.175 -1.17269e-13 	0 	0 	
0.185 4.35574e-14 	0 	0 	
0.195 -1.00516e-14 	0 	0 	
0.205 -9.88411e-14 	0 	0 	
0.215 -6.19854e-14 	0 	0 	
0.225 -5.86347e-14 	0 	0 	
0.235 -8.5439e-14 	0 	0 	
0.245 1.1727e-14 	0 	0 	
0.255 -4.69079e-14 	0 	0 	
0.265 -1.67528e-15 	0 	0 	
0.275 -3.35059e-14 	0 	0 	
0.285 -3.01549e-14 	0 	0 	
0.295 -6.19852e-14 	0 	0 	
0.305 0 	0 	0 	
0.315 -6.7011e-15 	0 	0 	
0.325 -8.3764e-15 	0 	0 	
0.335 -2.17786e-13 	0 	0 	
0.345 -5.52844e-14 	0 	0 	
0.355 7.03617e-14 	0 	0 	
0.365 -2.84798e-14 	0 	0 	
0.375 8.3764e-15 	0 	0 	
0.385 4.8583e-14 	0 	0 	
0.395 -2.01034e-14 	0 	0 	
0.405 3.85313e-14 	0 	0 	
0.415 -2.68045e-14 	0 	0 	
0.425 4.18822e-14 	0 	0 	
0.435 1.22296e-13 	0 	0 	
0.445 -6.5336e-14 	0 	0 	
0.455 3.35072e-15 	0 	0 	
0.465 -1.00517e-14 	0 	0 	
0.475 1.08893e-13 	0 	0 	
0.485 1.00517e-14 	0 	0 	
0.495 21.8214 	0 	0 	
0.505 70.8627 	0 	0 	
0.515 1.00517e-14 	0 	0 	
0.525 -7.53875e-14 	0 	0 	
0.535 -4.9002e-14 	0 	0 	
0.545 2.76423e-14 	0 	0 	
0.555 0 	0 	0 	
0.565 4.77456e-14 	0 	0 	
0.575 6.28255e-15 	0 	0 	
0.585 -6.91053e-14 	0 	0 	
0.595 -3.5181e-14 	0 	0 	
0.605 0 	0 	0 	
0.615 5.02585e-15 	0 	0 	
0.625 1.25644e-14 	0 	0 	
0.635 7.16181e-14 	0 	0 	
0.645 -7.53875e-14 	0 	0 	
0.655 -9.17214e-14 	0 	0 	
0.665 5.1515e-14 	0 	0 	
0.675 3.76938e-14 	0 	0 	
0.685 5.90539e-14 	0 	0 	
0.695 3.76938e-15 	0 	0 	
0.705 0 	0 	0 	
0.715 -5.02585e-14 	0 	0 	
0.725 -5.02584e-14 	0 	0 	
0.735 7.03619e-14 	0 	0 	
0.745 3.26679e-14 	0 	0 	
0.755 4.39761e-14 	0 	0 	
0.765 -2.51291e-15 	0 	0 	
0.775 -6.91054e-14 	0 	0 	
0.785 1.13081e-14 	0 	0 	
0.795 5.02585e-14 	0 	0 	
0.805 -1.13081e-14 	0 	0 	
0.815 0 	0 	0 	
0.825 6.91054e-14 	0 	0 	
0.835 0 	0 	0 	
0.845 0 	0 	0 	
0.855 0 	0 	0 	
0.865 -5.15148e-14 	0 	0 	
0.875 -1.88469e-14 	0 	0 	
0.885 9.54911e-14 	0 	0 	
0.895 7.91569e-14 	0 	0 	
0.905 -4.27197e-14 	0 	0 	
0.915 2.26163e-14 	0 	0 	
0.925 -6.91055e-14 	0 	0 	
0.935 -7.66443e-14 	0 	0 	
0.945 -5.65408e-14 	0 	0 	
0.955 3.39243e-14 	0 	0 	
0.965 5.02585e-15 	0 	0 	
0.975 -8.16701e-14 	0 	0 	
0.985 -4.77455e-14 	0 	0 	
0.995 5.77972e-14 	0 	0 	
