0.005 1.46954e-14 	0 	0 	
0.015 4.40863e-14 	0 	0 	
0.025 -7.34768e-14 	0 	0 	
0.035 -5.87817e-14 	0 	0 	
0.045 -4.40862e-14 	0 	0 	
0.055 0 	0 	0 	
0.065 1.46955e-13 	0 	0 	
0.075 1.02868e-13 	0 	0 	
0.085 1.02868e-13 	0 	0 	
0.095 1.17564e-13 	0 	0 	
0.105 5.87818e-14 	0 	0 	
0.115 5.87816e-14 	0 	0 	
0.125 1.76345e-13 	0 	0 	
0.135 1.32259e-13 	0 	0 	
0.145 1.32259e-13 	0 	0 	
0.155 1.46954e-13 	0 	0 	
0.165 2.35127e-13 	0 	0 	
0.175 2.49823e-13 	0 	0 	
0.185 7.34772e-14 	0 	0 	
0.195 1.46955e-14 	0 	0 	
0.205 -1.76345e-13 	0 	0 	
0.215 -2.50004e-19 	0 	0 	
0.225 -4.40863e-14 	0 	0 	
0.235 -5.87817e-14 	0 	0 	
0.245 4.07063e-12 	0 	0 	
0.255 4.06446e-10 	0 	0 	
0.265 2.43431e-08 	0 	0 	
0.275 9.28935e-07 	0 	0 	
0.285 2.34191e-05 	0 	0 	
0.295 0.000400678 	0 	0 	
0.305 0.00474615 	0 	0 	
0.315 0.0395121 	0 	0 	
0.325 0.234096 	0 	0 	
0.335 1.00192 	0 	0 	
0.345 3.1761 	0 	0 	
0.355 7.76025 	0 	0 	
0.365 15.3705 	0 	0 	
0.375 25.962 	0 	0 	
0.385 39.0225 	0 	0 	
0.395 53.8817 	0 	0 	
0.405 69.8644 	0 	0 	
0.415 86.2597 	0 	0 	
0.425 102.121 	0 	0 	
0.435 115.901 	0 	0 	
0.445 125.374 	0 	0 	
0.455 129.406 	0 	0 	
0.465 130.165 	0 	0 	
0.475 130.19 	0 	0 	
0.485 130.169 	0 	0 	
0.495 130.152 	0 	0 	
0.505 130.139 	0 	0 	
0.515 130.128 	0 	0 	
0.525 130.119 	0 	0 	
0.535 130.111 	0 	0 	
0.545 130.103 	0 	0 	
0.555 130.096 	0 	0 	
0.565 130.09 	0 	0 	
0.575 130.083 	0 	0 	
0.585 130.076 	0 	0 	
0.595 130.068 	0 	0 	
0.605 130.06 	0 	0 	
0.615 130.049 	0 	0 	
0.625 130.011 	0 	0 	
0.635 129.779 	0 	0 	
0.645 128.386 	0 	0 	
0.655 121.247 	0 	0 	
0.665 92.7395 	0 	0 	
0.675 33.143 	0 	0 	
0.685 3.63063 	0 	0 	
0.695 0.23508 	0 	0 	
0.705 0.0120968 	0 	0 	
0.715 0.00048474 	0 	0 	
0.725 1.4357e-05 	0 	0 	
0.735 2.98436e-07 	0 	0 	
0.745 4.12651e-09 	0 	0 	
0.755 3.56217e-11 	0 	0 	
0.765 7.7151e-14 	0 	0 	
0.775 -1.65323e-13 	0 	0 	
0.785 -1.76345e-13 	0 	0 	
0.795 -1.21237e-13 	0 	0 	
0.805 -9.9194e-14 	0 	0 	
0.815 -1.43281e-13 	0 	0 	
0.825 -7.7151e-14 	0 	0 	
0.835 -7.71511e-14 	0 	0 	
0.845 2.2043e-14 	0 	0 	
0.855 1.10216e-14 	0 	0 	
0.865 1.10216e-13 	0 	0 	
0.875 2.20432e-14 	0 	0 	
0.885 3.30648e-14 	0 	0 	
0.895 1.10216e-13 	0 	0 	
0.905 1.10215e-14 	0 	0 	
0.915 8.81725e-14 	0 	0 	
0.925 8.81725e-14 	0 	0 	
0.935 6.61296e-14 	0 	0 	
0.945 3.30646e-14 	0 	0 	
0.955 1.54302e-13 	0 	0 	
0.965 2.20432e-14 	0 	0 	
0.975 -2.20432e-14 	0 	0 	
0.985 2.20432e-14 	0 	0 	
0.995 -1.10216e-14 	0 	0 	
