0.005 5.48921e-14 	0 	0 	
0.015 9.99286e-14 	0 	0 	
0.025 1.17563e-13 	0 	0 	
0.035 1.20502e-13 	0 	0 	
0.045 1.23441e-13 	0 	0 	
0.055 1.02868e-13 	0 	0 	
0.065 6.17207e-14 	0 	0 	
0.075 -5.87815e-15 	0 	0 	
0.085 -9.11115e-14 	0 	0 	
0.095 -1.38137e-13 	0 	0 	
0.105 -1.55771e-13 	0 	0 	
0.115 -1.55771e-13 	0 	0 	
0.125 -1.52832e-13 	0 	0 	
0.135 -1.82223e-13 	0 	0 	
0.145 -2.20431e-13 	-3.26305e-31 	0 	
0.155 -2.43944e-13 	0 	0 	
0.165 -2.49823e-13 	0 	0 	
0.175 -2.02797e-13 	0 	0 	
0.185 -1.05807e-13 	0 	0 	
0.195 -1.46954e-14 	0 	0 	
0.205 2.05736e-14 	0 	0 	
0.215 1.46954e-14 	0 	0 	
0.225 2.93909e-14 	0 	0 	
0.235 4.70254e-14 	6.52609e-31 	0 	
0.245 6.46598e-14 	0 	0 	
0.255 1.02868e-13 	0 	0 	
0.265 1.23441e-13 	0 	0 	
0.275 1.23441e-13 	0 	0 	
0.285 1.17563e-13 	0 	0 	
0.295 9.11118e-14 	0 	0 	
0.305 6.46599e-14 	0 	0 	
0.315 6.17208e-14 	0 	0 	
0.325 7.05381e-14 	0 	0 	
0.335 6.17208e-14 	0 	0 	
0.345 -5.87805e-15 	0 	0 	
0.355 -8.81722e-14 	0 	0 	
0.365 -1.17563e-13 	0 	0 	
0.375 1.28269 	0 	0 	
0.385 7.33586 	0 	0 	
0.395 20.0259 	0 	0 	
0.405 37.1552 	0 	0 	
0.415 55.9637 	0 	0 	
0.425 74.9965 	0 	0 	
0.435 93.1262 	0 	0 	
0.445 109.043 	0 	0 	
0.455 120.841 	0 	0 	
0.465 127.623 	0 	0 	
0.475 130.553 	0 	0 	
0.485 131.059 	0 	0 	
0.495 130.477 	0 	0 	
0.505 129.899 	0 	0 	
0.515 129.724 	0 	0 	
0.525 129.945 	0 	0 	
0.535 130.262 	0 	0 	
0.545 130.388 	0 	0 	
0.555 130.239 	0 	0 	
0.565 129.955 	0 	0 	
0.575 129.783 	-1.69487e-30 	0 	
0.585 129.897 	-8.47868e-31 	0 	
0.595 130.108 	0 	0 	
0.605 129.724 	0 	0 	
0.615 125.828 	0 	0 	
0.625 108.115 	0 	0 	
0.635 68.5176 	0 	0 	
0.645 25.3643 	0 	0 	
0.655 3.76758 	0 	0 	
0.665 -5.29035e-14 	0 	0 	
0.675 -5.95165e-14 	0 	0 	
0.685 1.98388e-14 	0 	0 	
0.695 7.27423e-14 	0 	0 	
0.705 4.1882e-14 	0 	0 	
0.715 1.76345e-14 	0 	0 	
0.725 5.51078e-14 	0 	0 	
0.735 8.15597e-14 	0 	0 	
0.745 7.27424e-14 	0 	0 	
0.755 5.51079e-14 	0 	0 	
0.765 4.1882e-14 	0 	0 	
0.775 3.52691e-14 	0 	0 	
0.785 4.40863e-15 	0 	0 	
0.795 -3.74734e-14 	0 	0 	
0.805 -3.96777e-14 	0 	0 	
0.815 -1.32259e-14 	-4.89455e-31 	0 	
0.825 6.61295e-15 	0 	0 	
0.835 2.42475e-14 	0 	0 	
0.845 4.1882e-14 	0 	0 	
0.855 4.40863e-14 	0 	0 	
0.865 2.86561e-14 	0 	0 	
0.875 -2.20432e-15 	0 	0 	
0.885 -4.62906e-14 	0 	0 	
0.895 -7.05381e-14 	0 	0 	
0.905 -4.1882e-14 	0 	0 	
0.915 2.20431e-15 	0 	0 	
0.925 1.54302e-14 	0 	0 	
0.935 2.20431e-14 	0 	0 	
0.945 3.5269e-14 	0 	0 	
0.955 3.5269e-14 	0 	0 	
0.965 2.42475e-14 	0 	0 	
0.975 3.5269e-14 	0 	0 	
0.985 5.95165e-14 	0 	0 	
0.995 4.33735e-14 	0 	0 	
