0.005 5.65775e-14 	0 	0 	
0.015 4.04125e-14 	0 	0 	
0.025 -1.37403e-13 	0 	0 	
0.035 -2.42471e-14 	0 	0 	
0.045 8.08249e-14 	0 	0 	
0.055 -1.6165e-14 	0 	0 	
0.065 -1.61651e-14 	0 	0 	
0.075 1.05072e-13 	0 	0 	
0.085 -4.04126e-14 	0 	0 	
0.095 2.42475e-14 	0 	0 	
0.105 4.04125e-14 	0 	0 	
0.115 8.0825e-14 	0 	0 	
0.125 -4.04125e-14 	0 	0 	
0.135 -3.23299e-14 	0 	0 	
0.145 8.08251e-15 	0 	0 	
0.155 -8.08245e-14 	0 	0 	
0.165 -1.05072e-13 	0 	0 	
0.175 3.233e-14 	0 	0 	
0.185 -3.23299e-14 	0 	0 	
0.195 -4.8495e-14 	0 	0 	
0.205 8.08249e-15 	0 	0 	
0.215 1.05072e-13 	0 	0 	
0.225 5.8764e-25 	0 	0 	
0.235 6.46599e-14 	0 	0 	
0.245 -1.21237e-13 	0 	0 	
0.255 4.04124e-14 	0 	0 	
0.265 3.92826e-20 	0 	0 	
0.275 7.27425e-14 	0 	0 	
0.285 -9.69899e-14 	0 	0 	
0.295 -1.29319e-13 	0 	0 	
0.305 -6.46599e-14 	0 	0 	
0.315 3.233e-14 	3.14069e-30 	0 	
0.325 1.61649e-14 	0 	0 	
0.335 -8.89075e-14 	-3.14069e-30 	0 	
0.345 -4.04124e-14 	0 	0 	
0.355 1.21237e-13 	-1.57034e-30 	0 	
0.365 3.23299e-14 	6.28138e-30 	0 	
0.375 8.89074e-14 	0 	0 	
0.385 7.27425e-14 	0 	0 	
0.395 8.0825e-14 	0 	0 	
0.405 1.45405e-06 	0 	0 	
0.415 0.000898962 	0 	0 	
0.425 0.064103 	0 	0 	
0.435 1.19684 	0 	0 	
0.445 8.10484 	0 	0 	
0.455 27.1747 	0 	0 	
0.465 58.8222 	-2.40867e-30 	0 	
0.475 96.5397 	0 	0 	
0.485 124.633 	0 	0 	
0.495 130.186 	-4.2388e-31 	0 	
0.505 130.182 	-5.09925e-31 	0 	
0.515 130.14 	0 	0 	
0.525 130.098 	0 	0 	
0.535 129.889 	0 	0 	
0.545 126.742 	0 	0 	
0.555 102.013 	0 	0 	
0.565 28.4055 	0 	0 	
0.575 0.976504 	0 	0 	
0.585 0.00824587 	0 	0 	
0.595 9.03103e-06 	0 	0 	
0.605 3.03094e-14 	0 	0 	
0.615 -1.81856e-14 	0 	0 	
0.625 6.66806e-14 	0 	0 	
0.635 -3.63712e-14 	0 	0 	
0.645 3.03093e-14 	0 	0 	
0.655 2.42475e-14 	0 	0 	
0.665 -1.81855e-14 	0 	0 	
0.675 2.42475e-14 	0 	0 	
0.685 -9.09276e-14 	0 	0 	
0.695 -1.21238e-13 	0 	0 	
0.705 -6.06188e-14 	0 	0 	
0.715 -3.03093e-14 	0 	0 	
0.725 2.42475e-14 	0 	0 	
0.735 4.84951e-14 	0 	0 	
0.745 1.21237e-14 	0 	0 	
0.755 4.84949e-14 	0 	0 	
0.765 1.81857e-14 	0 	0 	
0.775 6.06186e-14 	0 	0 	
0.785 -6.06188e-14 	0 	0 	
0.795 -1.27299e-13 	0 	0 	
0.805 -1.21238e-14 	0 	0 	
0.815 4.24332e-14 	0 	0 	
0.825 -5.45569e-14 	0 	0 	
0.835 -4.24332e-14 	0 	0 	
0.845 -6.06186e-15 	0 	0 	
0.855 2.42475e-14 	0 	0 	
0.865 -6.062e-15 	0 	0 	
0.875 4.8495e-14 	0 	0 	
0.885 -6.0615e-15 	0 	0 	
0.895 -1.81857e-14 	0 	0 	
0.905 1.21237e-14 	0 	0 	
0.915 -1.21237e-13 	0 	0 	
0.925 9.09282e-14 	0 	0 	
0.935 3.63713e-14 	0 	0 	
0.945 3.63713e-14 	0 	0 	
0.955 -6.06188e-14 	0 	0 	
0.965 -1.27299e-13 	0 	0 	
0.975 -1.21237e-14 	0 	0 	
0.985 -3.63712e-14 	0 	0 	
0.995 5.45567e-14 	0 	0 	
