0.005 5.19531e-14 	0 	0 	
0.015 9.40506e-14 	0 	0 	
0.025 1.20502e-13 	0 	0 	
0.035 1.41076e-13 	0 	0 	
0.045 1.44015e-13 	0 	0 	
0.055 9.99289e-14 	0 	0 	
0.065 4.70254e-14 	0 	0 	
0.075 -2.49996e-20 	0 	0 	
0.085 -6.46599e-14 	0 	0 	
0.095 -1.08746e-13 	0 	0 	
0.105 -1.38137e-13 	0 	0 	
0.115 -1.67528e-13 	0 	0 	
0.125 -1.82223e-13 	0 	0 	
0.135 -2.11614e-13 	0 	0 	
0.145 -2.46883e-13 	-1.79468e-30 	0 	
0.155 -2.55701e-13 	1.63152e-30 	0 	
0.165 -2.49822e-13 	0 	0 	
0.175 -2.14553e-13 	0 	0 	
0.185 -1.20502e-13 	0 	0 	
0.195 -1.17562e-14 	0 	0 	
0.205 4.40863e-14 	0 	0 	
0.215 5.58426e-14 	0 	0 	
0.225 8.52334e-14 	1.63152e-31 	0 	
0.235 1.11685e-13 	9.78913e-30 	0 	
0.245 9.40507e-14 	6.52609e-31 	0 	
0.255 7.64162e-14 	0 	0 	
0.265 7.34772e-14 	0 	0 	
0.275 6.17208e-14 	0 	0 	
0.285 5.58426e-14 	0 	0 	
0.295 8.52334e-14 	0 	0 	
0.305 1.17563e-13 	0 	0 	
0.315 1.08746e-13 	0 	0 	
0.325 7.93554e-14 	0 	0 	
0.335 3.82081e-14 	0 	0 	
0.345 -2.64516e-14 	0 	0 	
0.355 -7.93551e-14 	0 	0 	
0.365 0.0456962 	0 	0 	
0.375 1.98358 	0 	0 	
0.385 9.6156 	0 	0 	
0.395 23.91 	0 	0 	
0.405 42.0655 	0 	0 	
0.415 61.5336 	0 	0 	
0.425 80.9002 	0 	0 	
0.435 98.727 	0 	0 	
0.445 113.298 	0 	0 	
0.455 123.122 	0 	0 	
0.465 128.212 	0 	0 	
0.475 130.052 	0 	0 	
0.485 130.155 	0 	0 	
0.495 129.809 	0 	0 	
0.505 129.783 	0 	0 	
0.515 130.096 	0 	0 	
0.525 130.492 	0 	0 	
0.535 130.711 	0 	0 	
0.545 130.653 	0 	0 	
0.555 130.285 	0 	0 	
0.565 129.715 	0 	0 	
0.575 129.32 	-2.71381e-30 	0 	
0.585 129.386 	-1.86542e-30 	0 	
0.595 129.728 	0 	0 	
0.605 129.775 	0 	0 	
0.615 128.054 	0 	0 	
0.625 117.887 	0 	0 	
0.635 87.8066 	0 	0 	
0.645 42.8746 	0 	0 	
0.655 10.0319 	0 	0 	
0.665 0.310363 	0 	0 	
0.675 -1.32259e-14 	0 	0 	
0.685 3.30647e-14 	0 	0 	
0.695 7.49467e-14 	0 	0 	
0.705 5.95165e-14 	0 	0 	
0.715 2.20432e-14 	0 	0 	
0.725 2.64518e-14 	0 	0 	
0.735 5.95165e-14 	0 	0 	
0.745 6.61294e-14 	0 	0 	
0.755 4.40863e-14 	0 	0 	
0.765 3.08604e-14 	0 	0 	
0.775 3.74733e-14 	0 	0 	
0.785 3.96777e-14 	0 	0 	
0.795 3.08604e-14 	0 	0 	
0.805 3.08604e-14 	0 	0 	
0.815 2.86561e-14 	-7.83129e-30 	0 	
0.825 1.32259e-14 	0 	0 	
0.835 -6.61293e-15 	0 	0 	
0.845 -2.64517e-14 	0 	0 	
0.855 -3.96776e-14 	0 	0 	
0.865 -4.40863e-14 	0 	0 	
0.875 -5.73121e-14 	0 	0 	
0.885 -7.71509e-14 	0 	0 	
0.895 -7.05381e-14 	0 	0 	
0.905 -4.1882e-14 	0 	0 	
0.915 -2.42475e-14 	0 	0 	
0.925 -2.64518e-14 	0 	0 	
0.935 -1.32259e-14 	0 	0 	
0.945 3.08604e-14 	0 	0 	
0.955 7.7151e-14 	0 	0 	
0.965 1.05807e-13 	0 	0 	
0.975 1.1242e-13 	0 	0 	
0.985 9.91942e-14 	0 	0 	
0.995 6.7281e-14 	0 	0 	
