0.005 7.28306e-14 	0 	0 	
0.015 4.85536e-14 	0 	0 	
0.025 8.82065e-26 	0 	0 	
0.035 -1.35257e-13 	0 	0 	
0.045 -1.90747e-14 	0 	0 	
0.055 1.1965e-13 	0 	0 	
0.065 2.28896e-13 	0 	0 	
0.075 8.81694e-26 	0 	0 	
0.085 1.12714e-13 	1.97332e-29 	0 	
0.095 7.62987e-14 	0 	0 	
0.105 1.31788e-13 	0 	0 	
0.115 6.93625e-14 	-1.03479e-29 	0 	
0.125 1.82076e-13 	1.01073e-29 	0 	
0.135 9.19053e-14 	0 	0 	
0.145 3.4681e-14 	0 	0 	
0.155 -5.20213e-15 	0 	0 	
0.165 1.89012e-13 	0 	0 	
0.175 2.16758e-13 	0 	0 	
0.185 -1.90746e-14 	0 	0 	
0.195 2.01151e-13 	0 	0 	
0.205 2.94788e-14 	0 	0 	
0.215 -2.94788e-14 	0 	0 	
0.225 6.06922e-14 	0 	0 	
0.235 5.37557e-14 	0 	0 	
0.245 4.50856e-14 	0 	0 	
0.255 -6.93625e-15 	0 	0 	
0.265 -4.68195e-14 	0 	0 	
0.275 1.56065e-13 	0 	0 	
0.285 1.30972e-10 	0 	0 	
0.295 2.75057e-08 	0 	0 	
0.305 2.46776e-06 	0 	0 	
0.315 0.000109262 	0 	0 	
0.325 0.0025718 	0 	0 	
0.335 0.0345421 	0 	0 	
0.345 0.278474 	0 	0 	
0.355 1.41165 	0 	0 	
0.365 4.7778 	0 	0 	
0.375 11.6894 	0 	0 	
0.385 22.5031 	0 	0 	
0.395 36.6337 	0 	0 	
0.405 53.1349 	0 	0 	
0.415 71.05 	0 	0 	
0.425 89.3872 	0 	0 	
0.435 106.75 	0 	0 	
0.445 120.692 	0 	0 	
0.455 128.241 	0 	0 	
0.465 130.083 	0 	0 	
0.475 130.189 	0 	0 	
0.485 130.164 	0 	0 	
0.495 130.142 	0 	0 	
0.505 130.117 	0 	0 	
0.515 130.079 	0 	0 	
0.525 -1.44591e+13 	0 	0 	
0.535 -7.67691e+17 	0 	0 	
0.545 -4.35729e+21 	0 	0 	
0.555 -5.24717e+32 	0 	0 	
0.565 -1.7531e+36 	0 	0 	
0.575 -2.71318e+45 	0 	0 	
0.585 4.49913e+47 	0 	0 	
0.595 -6.28485e+47 	0 	0 	
0.605 -3.39665e+52 	0 	0 	
0.615 2.73018e+55 	0 	0 	
0.625 1.09712e+49 	0 	0 	
0.635 4.43024e+33 	0 	0 	
0.645 7.92657e+28 	0 	0 	
0.655 5.40971e+24 	0 	0 	
0.665 1.42765e+13 	0 	0 	
0.675 2.05663e+06 	0 	0 	
0.685 0.00317391 	0 	0 	
0.695 4.51336e-05 	0 	0 	
0.705 3.60118e-07 	0 	0 	
0.715 1.32287e-09 	0 	0 	
0.725 1.48262e-12 	0 	0 	
0.735 -2.21091e-14 	0 	0 	
0.745 5.46226e-14 	0 	0 	
0.755 8.32349e-14 	0 	0 	
0.765 9.36392e-14 	0 	0 	
0.775 1.30055e-13 	0 	0 	
0.785 1.04044e-13 	0 	0 	
0.795 -5.2022e-14 	0 	0 	
0.805 7.67319e-14 	0 	0 	
0.815 6.2426e-14 	0 	0 	
0.825 -1.04044e-13 	0 	0 	
0.835 4.42185e-14 	0 	0 	
0.845 -1.1705e-14 	0 	0 	
0.855 -4.42185e-14 	0 	0 	
0.865 2.60109e-14 	0 	0 	
0.875 -1.49563e-13 	0 	0 	
0.885 7.67325e-14 	0 	0 	
0.895 2.19792e-13 	0 	0 	
0.905 -1.56061e-14 	0 	0 	
0.915 -2.21094e-14 	0 	0 	
0.925 -1.95082e-14 	0 	0 	
0.935 4.68196e-14 	0 	0 	
0.945 8.97375e-14 	0 	0 	
0.955 1.11847e-13 	0 	0 	
0.965 8.5836e-14 	0 	0 	
0.975 1.30054e-14 	0 	0 	
0.985 -1.24852e-13 	0 	0 	
0.995 -5.46229e-14 	0 	0 	
