0.005 2.17787e-13 	0 	0 	
0.015 4.18821e-14 	0 	0 	
0.025 1.1727e-13 	0 	0 	
0.035 -5.02585e-15 	0 	0 	
0.045 5.36091e-14 	0 	0 	
0.055 5.69593e-14 	0 	0 	
0.065 1.32347e-13 	0 	0 	
0.075 5.16191e-24 	0 	0 	
0.085 1.03867e-13 	0 	0 	
0.095 6.19852e-14 	0 	0 	
0.105 -6.19852e-14 	0 	0 	
0.115 3.68562e-14 	0 	0 	
0.125 -1.25646e-13 	0 	0 	
0.135 3.35055e-14 	0 	0 	
0.145 4.18822e-14 	0 	0 	
0.155 -3.01548e-14 	0 	0 	
0.165 3.01554e-14 	0 	0 	
0.175 -5.8635e-14 	0 	0 	
0.185 -6.19853e-14 	0 	0 	
0.195 5.02584e-15 	0 	0 	
0.205 1.52451e-13 	0 	0 	
0.215 -6.03102e-14 	0 	0 	
0.225 -5.02583e-14 	0 	0 	
0.235 -2.84796e-14 	0 	0 	
0.245 1.67542e-15 	0 	0 	
0.255 7.37123e-14 	0 	0 	
0.265 2.21137e-13 	0 	0 	
0.275 1.08893e-13 	0 	0 	
0.285 -5.86344e-14 	0 	0 	
0.295 -5.36088e-14 	0 	0 	
0.305 1.03532e-12 	0 	0 	
0.315 1.07233e-09 	0 	0 	
0.325 2.46756e-07 	0 	0 	
0.335 2.04942e-05 	0 	0 	
0.345 0.000837801 	0 	0 	
0.355 0.0167371 	0 	0 	
0.365 0.180554 	0 	0 	
0.375 1.15408 	0 	0 	
0.385 4.55147 	0 	0 	
0.395 12.2148 	0 	0 	
0.405 24.8241 	0 	0 	
0.415 41.6435 	0 	0 	
0.425 61.3322 	0 	0 	
0.435 82.4318 	0 	0 	
0.445 103.019 	0 	0 	
0.455 119.769 	0 	0 	
0.465 128.448 	6.97893e-31 	0 	
0.475 130.145 	0 	0 	
0.485 130.189 	0 	0 	
0.495 130.164 	0 	0 	
0.505 130.145 	0 	0 	
0.515 130.13 	0 	0 	
0.525 130.117 	0 	0 	
0.535 130.106 	0 	0 	
0.545 130.096 	0 	0 	
0.555 130.085 	0 	0 	
0.565 130.074 	0 	0 	
0.575 130.062 	0 	0 	
0.585 130.04 	0 	0 	
0.595 129.916 	0 	0 	
0.605 129.847 	0 	0 	
0.615 122.572 	0 	0 	
0.625 82.932 	0 	0 	
0.635 17.0492 	0 	0 	
0.645 0.799515 	0 	0 	
0.655 0.0213133 	0 	0 	
0.665 0.000328378 	0 	0 	
0.675 2.85145e-06 	0 	0 	
0.685 9.51606e-09 	0 	0 	
0.695 7.33899e-12 	0 	0 	
0.705 9.92606e-14 	0 	0 	
0.715 1.01773e-13 	0 	0 	
0.725 1.06799e-13 	0 	0 	
0.735 7.53877e-14 	0 	0 	
0.745 -1.75904e-14 	0 	0 	
0.755 2.51292e-15 	0 	0 	
0.765 -2.51292e-15 	0 	0 	
0.775 3.76937e-14 	0 	0 	
0.785 4.77456e-14 	0 	0 	
0.795 -6.2824e-15 	0 	0 	
0.805 -1.00517e-14 	0 	0 	
0.815 3.89501e-14 	0 	0 	
0.825 -4.39763e-14 	0 	0 	
0.835 4.27196e-14 	0 	0 	
0.845 1.50774e-14 	0 	0 	
0.855 6.53361e-14 	0 	0 	
0.865 2.63857e-14 	0 	0 	
0.875 1.8847e-14 	0 	0 	
0.885 2.51277e-15 	0 	0 	
0.895 2.5129e-14 	0 	0 	
0.905 -1.00515e-14 	0 	0 	
0.915 8.81435e-25 	0 	0 	
0.925 -9.42345e-14 	0 	0 	
0.935 -1.43236e-13 	0 	0 	
0.945 8.79526e-15 	0 	0 	
0.955 4.27197e-14 	0 	0 	
0.965 -2.76421e-14 	0 	0 	
0.975 -1.25646e-14 	0 	0 	
0.985 8.81435e-25 	0 	0 	
0.995 -1.00515e-14 	0 	0 	
