0.005 4.90141e-14 	0 	0 	
0.015 8.22944e-14 	0 	0 	
0.025 9.99288e-14 	0 	0 	
0.035 1.05807e-13 	0 	0 	
0.045 9.40507e-14 	0 	0 	
0.055 7.34772e-14 	0 	0 	
0.065 3.233e-14 	0 	0 	
0.075 -3.82081e-14 	0 	0 	
0.085 -6.17208e-14 	0 	0 	
0.095 -2.35127e-14 	0 	0 	
0.105 -2.35127e-14 	0 	0 	
0.115 -7.34771e-14 	0 	0 	
0.125 -1.26381e-13 	0 	0 	
0.135 -1.79284e-13 	0 	0 	
0.145 -2.14553e-13 	-1.63152e-30 	0 	
0.155 -2.08675e-13 	1.30522e-30 	0 	
0.165 -1.70467e-13 	0 	0 	
0.175 -1.32259e-13 	0 	0 	
0.185 -8.52335e-14 	0 	0 	
0.195 -5.87815e-15 	0 	0 	
0.205 4.99645e-14 	0 	0 	
0.215 5.58427e-14 	0 	0 	
0.225 8.22944e-14 	1.63152e-31 	0 	
0.235 1.11685e-13 	6.52609e-30 	0 	
0.245 8.52335e-14 	6.52609e-31 	0 	
0.255 4.99645e-14 	0 	0 	
0.265 3.5269e-14 	0 	0 	
0.275 2.35127e-14 	0 	0 	
0.285 3.82081e-14 	0 	0 	
0.295 6.46599e-14 	0 	0 	
0.305 6.46599e-14 	0 	0 	
0.315 5.58427e-14 	0 	0 	
0.325 3.233e-14 	0 	0 	
0.335 -5.87815e-15 	0 	0 	
0.345 -3.5269e-14 	0 	0 	
0.355 -5.58426e-14 	0 	0 	
0.365 -7.34772e-14 	0 	0 	
0.375 -7.64163e-14 	0 	0 	
0.385 -7.05381e-14 	0 	0 	
0.395 -7.64163e-14 	0 	0 	
0.405 1.0774 	0 	0 	
0.415 7.71965 	0 	0 	
0.425 23.7485 	0 	0 	
0.435 46.6253 	0 	0 	
0.445 71.631 	0 	0 	
0.455 95.3914 	0 	0 	
0.465 113.803 	0 	0 	
0.475 124.584 	0 	0 	
0.485 129.516 	0 	0 	
0.495 130.845 	0 	0 	
0.505 130.43 	0 	0 	
0.515 129.752 	0 	0 	
0.525 129.291 	0 	0 	
0.535 129.195 	0 	0 	
0.545 129.549 	0 	0 	
0.555 130.314 	0 	0 	
0.565 130.668 	0 	0 	
0.575 128.201 	-2.03104e-30 	0 	
0.585 114.356 	-1.21113e-30 	0 	
0.595 78.601 	0 	0 	
0.605 33.252 	0 	0 	
0.615 6.09573 	0 	0 	
0.625 -9.91941e-14 	0 	0 	
0.635 -1.03603e-13 	0 	0 	
0.645 -5.29035e-14 	0 	0 	
0.655 -1.10216e-14 	0 	0 	
0.665 -1.10216e-14 	0 	0 	
0.675 -2.20431e-14 	0 	0 	
0.685 -6.61293e-15 	0 	0 	
0.695 1.98388e-14 	0 	0 	
0.705 2.42475e-14 	0 	0 	
0.715 4.40863e-14 	0 	0 	
0.725 9.91941e-14 	0 	0 	
0.735 1.32259e-13 	0 	0 	
0.745 9.69899e-14 	0 	0 	
0.755 4.40863e-14 	0 	0 	
0.765 1.98389e-14 	0 	0 	
0.775 2.20433e-15 	0 	0 	
0.785 -2.20431e-14 	0 	0 	
0.795 -2.64518e-14 	0 	0 	
0.805 2.2043e-15 	0 	0 	
0.815 2.42475e-14 	-5.62874e-30 	0 	
0.825 1.98389e-14 	0 	0 	
0.835 6.61295e-15 	0 	0 	
0.845 0 	0 	0 	
0.855 -6.61295e-15 	0 	0 	
0.865 -3.5269e-14 	0 	0 	
0.875 -6.83338e-14 	0 	0 	
0.885 -6.39252e-14 	0 	0 	
0.895 -3.96777e-14 	0 	0 	
0.905 -2.64518e-14 	0 	0 	
0.915 -2.20431e-14 	0 	0 	
0.925 -2.42474e-14 	0 	0 	
0.935 -2.42475e-14 	0 	0 	
0.945 -1.32259e-14 	0 	0 	
0.955 1.76345e-14 	0 	0 	
0.965 6.3925e-14 	0 	0 	
0.975 8.81724e-14 	0 	0 	
0.985 7.93552e-14 	0 	0 	
0.995 5.84637e-14 	0 	0 	
