0.005 0 	0 	0 	
0.015 0 	0 	0 	
0.025 1.46954e-14 	0 	0 	
0.035 3.82081e-14 	0 	0 	
0.045 3.5269e-14 	0 	0 	
0.055 2.05736e-14 	0 	0 	
0.065 1.17564e-14 	0 	0 	
0.075 -3.5269e-14 	0 	0 	
0.085 -7.64161e-14 	0 	0 	
0.095 -3.82081e-14 	0 	0 	
0.105 1.76345e-14 	0 	0 	
0.115 5.58426e-14 	0 	0 	
0.125 7.05381e-14 	0 	0 	
0.135 2.35127e-14 	0 	0 	
0.145 -4.70254e-14 	-9.78913e-31 	0 	
0.155 -8.22944e-14 	0 	0 	
0.165 -7.93554e-14 	0 	0 	
0.175 -5.87818e-14 	0 	0 	
0.185 -2.64518e-14 	0 	0 	
0.195 3.52689e-14 	0 	0 	
0.205 7.05378e-14 	0 	0 	
0.215 3.52689e-14 	0 	0 	
0.225 2.93908e-15 	0 	0 	
0.235 0 	1.95783e-30 	0 	
0.245 -2.93907e-15 	0 	0 	
0.255 2.49999e-20 	0 	0 	
0.265 8.81727e-15 	0 	0 	
0.275 5.87818e-15 	0 	0 	
0.285 0 	0 	0 	
0.295 0 	0 	0 	
0.305 0 	0 	0 	
0.315 -2.93907e-15 	0 	0 	
0.325 8.81727e-15 	0 	0 	
0.335 3.23299e-14 	0 	0 	
0.345 8.81725e-15 	0 	0 	
0.355 -2.93909e-14 	0 	0 	
0.365 -1.76345e-14 	0 	0 	
0.375 -8.81725e-15 	0 	0 	
0.385 -2.35127e-14 	0 	0 	
0.395 -2.05736e-14 	0 	0 	
0.405 5.87817e-15 	0 	0 	
0.415 2.64518e-14 	0 	0 	
0.425 1.76345e-14 	0 	0 	
0.435 2.93908e-15 	0 	0 	
0.445 -5.87817e-15 	0 	0 	
0.455 -8.81728e-15 	0 	0 	
0.465 3.24702 	0 	0 	
0.475 20.9237 	0 	0 	
0.485 59.8415 	0 	0 	
0.495 105.323 	0 	0 	
0.505 128.587 	0 	0 	
0.515 113.34 	0 	0 	
0.525 69.0555 	0 	0 	
0.535 24.3835 	0 	0 	
0.545 3.239 	0 	0 	
0.555 0 	0 	0 	
0.565 -6.61295e-15 	0 	0 	
0.575 -6.61295e-15 	0 	0 	
0.585 6.61295e-15 	0 	0 	
0.595 6.61295e-15 	0 	0 	
0.605 -8.81725e-15 	0 	0 	
0.615 -2.64517e-14 	0 	0 	
0.625 -3.08604e-14 	0 	0 	
0.635 -8.81725e-15 	0 	0 	
0.645 2.42474e-14 	0 	0 	
0.655 2.42475e-14 	0 	0 	
0.665 -2.64518e-14 	0 	0 	
0.675 -6.17208e-14 	0 	0 	
0.685 -3.08604e-14 	0 	0 	
0.695 3.08604e-14 	0 	0 	
0.705 6.39251e-14 	0 	0 	
0.715 4.1882e-14 	0 	0 	
0.725 8.81725e-15 	0 	0 	
0.735 0 	0 	0 	
0.745 0 	0 	0 	
0.755 0 	0 	0 	
0.765 0 	0 	0 	
0.775 -4.40862e-15 	0 	0 	
0.785 -2.20431e-14 	0 	0 	
0.795 -2.64518e-14 	0 	0 	
0.805 2.2043e-15 	0 	0 	
0.815 2.42475e-14 	-1.46837e-30 	0 	
0.825 1.98389e-14 	0 	0 	
0.835 6.61295e-15 	0 	0 	
0.845 0 	0 	0 	
0.855 -2.20431e-15 	0 	0 	
0.865 -1.10216e-14 	0 	0 	
0.875 -8.81727e-15 	0 	0 	
0.885 8.81726e-15 	0 	0 	
0.895 1.10216e-14 	0 	0 	
0.905 -2.20431e-15 	0 	0 	
0.915 -1.98388e-14 	0 	0 	
0.925 -2.64518e-14 	0 	0 	
0.935 2.20432e-15 	0 	0 	
0.945 2.86561e-14 	0 	0 	
0.955 1.76345e-14 	0 	0 	
0.965 2.20432e-15 	0 	0 	
0.975 0 	0 	0 	
0.985 0 	0 	0 	
0.995 0 	0 	0 	
