0.005 5.45495e-14 	0 	0 	
0.015 3.75025e-14 	0 	0 	
0.025 5.11399e-14 	0 	0 	
0.035 -7.50053e-14 	0 	0 	
0.045 -1.46602e-13 	0 	0 	
0.055 -2.18198e-13 	0 	0 	
0.065 -4.09122e-14 	0 	0 	
0.075 2.49995e-19 	0 	0 	
0.085 -6.81865e-15 	0 	0 	
0.095 -2.38656e-14 	0 	0 	
0.105 6.13683e-14 	0 	0 	
0.115 8.86426e-14 	0 	0 	
0.125 1.70467e-14 	0 	0 	
0.135 1.17526e-24 	0 	0 	
0.145 4.09117e-14 	0 	0 	
0.155 6.13679e-14 	0 	0 	
0.165 -4.77307e-14 	0 	0 	
0.175 6.81865e-14 	0 	0 	
0.185 -1.02281e-14 	-7.80682e-30 	0 	
0.195 6.13683e-14 	0 	0 	
0.205 2.72747e-14 	0 	0 	
0.215 8.18243e-14 	0 	0 	
0.225 1.0228e-13 	0 	0 	
0.235 1.5342e-13 	0 	0 	
0.245 1.80695e-13 	0 	0 	
0.255 6.81866e-15 	-8.27998e-30 	0 	
0.265 1.5683e-13 	-4.02169e-30 	0 	
0.275 3.40935e-14 	0 	0 	
0.285 4.43216e-14 	0 	0 	
0.295 -9.20524e-14 	0 	0 	
0.305 -6.13683e-14 	0 	0 	
0.315 2.42063e-13 	0 	0 	
0.325 5.23997e-10 	0 	0 	
0.335 2.08529e-07 	0 	0 	
0.345 2.36803e-05 	0 	0 	
0.355 0.00110825 	-3.66686e-30 	0 	
0.365 0.0245402 	0 	0 	
0.375 0.274345 	0 	0 	
0.385 1.69038 	0 	0 	
0.395 6.31632 	0 	0 	
0.405 16.0793 	0 	0 	
0.415 31.2027 	0 	0 	
0.425 50.4865 	0 	0 	
0.435 72.2911 	0 	0 	
0.445 94.6821 	0 	0 	
0.455 114.543 	0 	0 	
0.465 126.788 	0 	0 	
0.475 130.03 	0 	0 	
0.485 130.196 	0 	0 	
0.495 130.169 	7.13987e-31 	0 	
0.505 130.147 	0 	0 	
0.515 130.129 	0 	0 	
0.525 130.115 	0 	0 	
0.535 130.101 	0 	0 	
0.545 130.086 	0 	0 	
0.555 130.068 	0 	0 	
0.565 130.044 	0 	0 	
0.575 130 	0 	0 	
0.585 129.895 	0 	0 	
0.595 131.882 	0 	0 	
0.605 127.161 	0 	0 	
0.615 81.3668 	0 	0 	
0.625 26.237 	0 	0 	
0.635 1.14963 	0 	0 	
0.645 0.0267821 	0 	0 	
0.655 0.000359193 	0 	0 	
0.665 2.25128e-06 	0 	0 	
0.675 4.30335e-09 	0 	0 	
0.685 1.08673e-12 	0 	0 	
0.695 -2.55705e-15 	0 	0 	
0.705 1.53425e-14 	0 	0 	
0.715 1.7899e-14 	0 	0 	
0.725 1.0228e-13 	0 	0 	
0.735 4.09119e-14 	0 	0 	
0.745 1.5342e-14 	0 	0 	
0.755 1.09951e-13 	0 	0 	
0.765 -3.5798e-14 	0 	0 	
0.775 1.0228e-13 	0 	0 	
0.785 -7.67101e-15 	0 	0 	
0.795 -8.43814e-14 	0 	0 	
0.805 5.36975e-14 	0 	0 	
0.815 7.67102e-15 	0 	0 	
0.825 5.11403e-14 	0 	0 	
0.835 2.0456e-14 	0 	0 	
0.845 -7.67101e-15 	0 	0 	
0.855 -1.5342e-13 	0 	0 	
0.865 2.55705e-15 	0 	0 	
0.875 -2.55702e-14 	0 	0 	
0.885 2.55694e-15 	0 	0 	
0.895 -5.88114e-14 	0 	0 	
0.905 -1.2785e-14 	0 	0 	
0.915 5.11435e-15 	0 	0 	
0.925 -5.11399e-14 	0 	0 	
0.935 -4.40725e-25 	0 	0 	
0.945 3.32414e-14 	0 	0 	
0.955 6.6482e-14 	0 	0 	
0.965 4.85831e-14 	0 	0 	
0.975 -6.39253e-14 	0 	0 	
0.985 6.3925e-14 	0 	0 	
0.995 1.17622e-13 	0 	0 	
