0.005 7.34771e-14 	0 	0 	
0.015 -4.40862e-14 	0 	0 	
0.025 1.46957e-14 	0 	0 	
0.035 -4.40862e-14 	0 	0 	
0.045 2.93909e-14 	0 	0 	
0.055 4.40862e-14 	0 	0 	
0.065 1.00002e-19 	0 	0 	
0.075 -1.46955e-14 	0 	0 	
0.085 -1.46955e-14 	0 	0 	
0.095 -5.87816e-14 	0 	0 	
0.105 -8.81725e-14 	0 	0 	
0.115 -4.40863e-14 	0 	0 	
0.125 1.02868e-13 	0 	0 	
0.135 1.32259e-13 	0 	0 	
0.145 1.91041e-13 	0 	0 	
0.155 1.6165e-13 	0 	0 	
0.165 1.76345e-13 	0 	0 	
0.175 2.05736e-13 	0 	0 	
0.185 5.87816e-14 	0 	0 	
0.195 -5.8782e-14 	0 	0 	
0.205 -2.93908e-14 	0 	0 	
0.215 -7.34771e-14 	0 	0 	
0.225 -8.81726e-14 	0 	0 	
0.235 -1.32259e-13 	0 	0 	
0.245 -1.02868e-13 	0 	0 	
0.255 -1.46954e-13 	0 	0 	
0.265 -1.6165e-13 	0 	0 	
0.275 -2.05736e-13 	0 	0 	
0.285 -7.3477e-14 	0 	0 	
0.295 -4.40865e-14 	0 	0 	
0.305 2.93908e-14 	0 	0 	
0.315 4.40862e-14 	0 	0 	
0.325 1.02868e-13 	0 	0 	
0.335 2.05736e-13 	0 	0 	
0.345 1.6165e-13 	0 	0 	
0.355 1.61767e-10 	0 	0 	
0.365 1.15806e-07 	0 	0 	
0.375 1.96732e-05 	0 	0 	
0.385 0.00118365 	0 	0 	
0.395 0.0306951 	0 	0 	
0.405 0.383665 	0 	0 	
0.415 2.51478 	0 	0 	
0.425 9.58546 	0 	0 	
0.435 24.2751 	0 	0 	
0.445 46.4453 	0 	0 	
0.455 73.6607 	0 	0 	
0.465 101.713 	0 	0 	
0.475 122.81 	0 	0 	
0.485 129.814 	0 	0 	
0.495 130.209 	0 	0 	
0.505 130.174 	0 	0 	
0.515 130.145 	0 	0 	
0.525 130.121 	0 	0 	
0.535 130.098 	0 	0 	
0.545 130.067 	0 	0 	
0.555 129.9 	0 	0 	
0.565 128.234 	0 	0 	
0.575 116.753 	0 	0 	
0.585 70.5262 	0 	0 	
0.595 11.9541 	0 	0 	
0.605 0.579888 	0 	0 	
0.615 0.0144599 	0 	0 	
0.625 0.000175023 	0 	0 	
0.635 8.07905e-07 	0 	0 	
0.645 9.20291e-10 	0 	0 	
0.655 5.51077e-14 	0 	0 	
0.665 1.10216e-14 	0 	0 	
0.675 4.40862e-14 	0 	0 	
0.685 -1.10217e-14 	0 	0 	
0.695 2.72143e-24 	0 	0 	
0.705 -1.10216e-14 	0 	0 	
0.715 -1.10215e-14 	0 	0 	
0.725 -7.7151e-14 	0 	0 	
0.735 -9.91941e-14 	0 	0 	
0.745 -9.91942e-14 	0 	0 	
0.755 -1.10216e-13 	0 	0 	
0.765 -9.91939e-14 	0 	0 	
0.775 -1.54302e-13 	0 	0 	
0.785 -7.7151e-14 	0 	0 	
0.795 -1.32259e-13 	0 	0 	
0.805 -2.50027e-20 	0 	0 	
0.815 -5.51078e-14 	0 	0 	
0.825 -3.30647e-14 	0 	0 	
0.835 9.91939e-14 	0 	0 	
0.845 9.9194e-14 	0 	0 	
0.855 1.54302e-13 	0 	0 	
0.865 3.30647e-14 	0 	0 	
0.875 -3.30648e-14 	0 	0 	
0.885 -9.91941e-14 	0 	0 	
0.895 1.35822e-24 	0 	0 	
0.905 3.30646e-14 	0 	0 	
0.915 3.30647e-14 	0 	0 	
0.925 -6.61293e-14 	0 	0 	
0.935 7.7151e-14 	0 	0 	
0.945 -2.49986e-20 	0 	0 	
0.955 4.40863e-14 	0 	0 	
0.965 1.21237e-13 	0 	0 	
0.975 1.65324e-13 	0 	0 	
0.985 2.2043e-14 	0 	0 	
0.995 -2.20432e-14 	0 	0 	
