0.005 -9.699e-14 	0 	0 	
0.015 8.0825e-15 	0 	0 	
0.025 -6.466e-14 	0 	0 	
0.035 1.6165e-14 	0 	0 	
0.045 1.6165e-13 	0 	0 	
0.055 -1.2932e-13 	0 	0 	
0.065 8.08251e-15 	0 	0 	
0.075 6.46602e-14 	0 	0 	
0.085 8.0825e-15 	0 	0 	
0.095 3.233e-14 	0 	0 	
0.105 4.8495e-14 	0 	0 	
0.115 5.65775e-14 	0 	0 	
0.125 9.69896e-14 	0 	0 	
0.135 -4.8495e-14 	0 	0 	
0.145 -8.0825e-14 	0 	0 	
0.155 3.78546e-19 	0 	0 	
0.165 7.27425e-14 	0 	0 	
0.175 -4.8495e-14 	0 	0 	
0.185 -1.37402e-13 	0 	0 	
0.195 7.27425e-14 	0 	0 	
0.205 -8.08249e-15 	0 	0 	
0.215 -4.04126e-14 	0 	0 	
0.225 1.23221e-19 	0 	0 	
0.235 -1.61646e-14 	0 	0 	
0.245 -6.46601e-14 	0 	0 	
0.255 -4.04125e-14 	0 	0 	
0.265 -2.42475e-14 	0 	0 	
0.275 -3.233e-14 	0 	0 	
0.285 -1.6165e-14 	0 	0 	
0.295 -8.89075e-14 	0 	0 	
0.305 -1.53567e-13 	0 	0 	
0.315 -2.42475e-14 	4.03801e-30 	0 	
0.325 2.42475e-14 	0 	0 	
0.335 -4.04125e-14 	-4.03801e-30 	0 	
0.345 -8.08249e-15 	0 	0 	
0.355 -8.0825e-15 	-2.01901e-30 	0 	
0.365 -4.04125e-14 	8.07603e-30 	0 	
0.375 1.28621e-09 	0 	0 	
0.385 2.31636e-06 	0 	0 	
0.395 0.000474608 	0 	0 	
0.405 0.0238155 	0 	0 	
0.415 0.428319 	0 	0 	
0.425 3.28126 	0 	0 	
0.435 12.9519 	0 	0 	
0.445 32.2073 	-2.4668e-31 	0 	
0.455 59.6264 	-2.70846e-31 	0 	
0.465 90.9471 	-2.37315e-30 	0 	
0.475 118.076 	0 	0 	
0.485 129.397 	0 	0 	
0.495 130.209 	-5.9309e-31 	0 	
0.505 130.172 	-5.08946e-31 	0 	
0.515 130.141 	0 	0 	
0.525 130.114 	0 	0 	
0.535 130.088 	0 	0 	
0.545 130.022 	0 	0 	
0.555 129.243 	0 	0 	
0.565 121.815 	0 	0 	
0.575 81.9674 	0 	0 	
0.585 13.7163 	0 	0 	
0.595 0.428766 	0 	0 	
0.605 0.00525244 	0 	0 	
0.615 1.78717e-05 	0 	0 	
0.625 7.45148e-09 	0 	0 	
0.635 4.24331e-14 	0 	0 	
0.645 -1.81857e-14 	0 	0 	
0.655 3.03095e-14 	0 	0 	
0.665 -1.81857e-14 	0 	0 	
0.675 -3.63713e-14 	0 	0 	
0.685 8.81431e-25 	0 	0 	
0.695 3.03093e-14 	0 	0 	
0.705 2.42475e-14 	0 	0 	
0.715 -3.63713e-14 	0 	0 	
0.725 6.06186e-15 	0 	0 	
0.735 5.45569e-14 	0 	0 	
0.745 4.84951e-14 	0 	0 	
0.755 9.09277e-14 	0 	0 	
0.765 -1.21237e-14 	0 	0 	
0.775 4.84949e-14 	0 	0 	
0.785 4.8495e-14 	0 	0 	
0.795 -5.45568e-14 	0 	0 	
0.805 -1.21237e-14 	0 	0 	
0.815 -6.06187e-15 	0 	0 	
0.825 -8.4866e-14 	0 	0 	
0.835 7.88041e-14 	0 	0 	
0.845 1.21237e-14 	0 	0 	
0.855 2.42474e-14 	0 	0 	
0.865 -1.21238e-14 	0 	0 	
0.875 -2.42475e-14 	0 	0 	
0.885 1.15176e-13 	0 	0 	
0.895 8.48661e-14 	0 	0 	
0.905 -6.06175e-15 	0 	0 	
0.915 -1.32217e-24 	0 	0 	
0.925 4.84949e-14 	0 	0 	
0.935 3.03093e-14 	0 	0 	
0.945 6.06186e-15 	0 	0 	
0.955 4.84949e-14 	0 	0 	
0.965 -8.48662e-14 	0 	0 	
0.975 6.06188e-15 	0 	0 	
0.985 4.84949e-14 	0 	0 	
0.995 -1.81856e-14 	0 	0 	
