0.005 -7.34772e-14 	0 	0 	
0.015 1.02868e-13 	0 	0 	
0.025 9.13931e-24 	0 	0 	
0.035 2.93907e-14 	0 	0 	
0.045 -1.46953e-14 	0 	0 	
0.055 1.46956e-14 	0 	0 	
0.065 -1.46953e-14 	0 	0 	
0.075 2.9391e-14 	0 	0 	
0.085 2.9391e-14 	0 	0 	
0.095 4.40863e-14 	0 	0 	
0.105 1.82812e-24 	0 	0 	
0.115 -2.93908e-14 	0 	0 	
0.125 2.93908e-14 	0 	0 	
0.135 4.40863e-14 	0 	0 	
0.145 1.46955e-14 	0 	0 	
0.155 -3.25005e-19 	0 	0 	
0.165 7.3477e-14 	0 	0 	
0.175 -7.3477e-14 	0 	0 	
0.185 7.34775e-14 	0 	0 	
0.195 -7.34772e-14 	0 	0 	
0.205 -1.02868e-13 	0 	0 	
0.215 1.02868e-13 	0 	0 	
0.225 -5.87816e-14 	0 	0 	
0.235 2.9391e-14 	0 	0 	
0.245 4.40862e-14 	0 	0 	
0.255 -1.46955e-14 	0 	0 	
0.265 -4.40865e-14 	0 	0 	
0.275 -2.9391e-14 	0 	0 	
0.285 -4.40864e-14 	0 	0 	
0.295 -2.93909e-14 	0 	0 	
0.305 4.40865e-14 	0 	0 	
0.315 2.93905e-14 	0 	0 	
0.325 -2.9391e-14 	0 	0 	
0.335 1.46955e-14 	0 	0 	
0.345 5.87816e-14 	0 	0 	
0.355 1.46953e-14 	0 	0 	
0.365 -8.81727e-14 	0 	0 	
0.375 4.40863e-14 	0 	0 	
0.385 5.87817e-14 	0 	0 	
0.395 1.46954e-14 	0 	0 	
0.405 1.46954e-14 	0 	0 	
0.415 7.34769e-14 	0 	0 	
0.425 -7.34769e-14 	0 	0 	
0.435 4.40863e-14 	0 	0 	
0.445 4.40863e-14 	0 	0 	
0.455 -4.40864e-14 	0 	0 	
0.465 2.9391e-14 	0 	0 	
0.475 5.87818e-14 	0 	0 	
0.485 1.37455 	0 	0 	
0.495 52.4763 	0 	0 	
0.505 109.699 	0 	0 	
0.515 6.56195 	0 	0 	
0.525 -1.24996e-19 	0 	0 	
0.535 1.10216e-14 	0 	0 	
0.545 2.2043e-14 	0 	0 	
0.555 7.71511e-14 	0 	0 	
0.565 -1.10216e-14 	0 	0 	
0.575 6.61295e-14 	0 	0 	
0.585 2.20432e-14 	0 	0 	
0.595 -3.30647e-14 	0 	0 	
0.605 1.10215e-14 	0 	0 	
0.615 6.61295e-14 	0 	0 	
0.625 6.61293e-14 	0 	0 	
0.635 2.20432e-14 	0 	0 	
0.645 -5.45251e-24 	0 	0 	
0.655 -1.10216e-14 	0 	0 	
0.665 1.00001e-19 	0 	0 	
0.675 -1.10215e-14 	0 	0 	
0.685 -1.10216e-14 	0 	0 	
0.695 -8.81725e-14 	0 	0 	
0.705 2.20431e-14 	0 	0 	
0.715 -2.20431e-14 	0 	0 	
0.725 3.30646e-14 	0 	0 	
0.735 -6.61292e-14 	0 	0 	
0.745 -3.30648e-14 	0 	0 	
0.755 4.40863e-14 	0 	0 	
0.765 -2.20431e-14 	0 	0 	
0.775 -4.08205e-24 	0 	0 	
0.785 2.20432e-14 	0 	0 	
0.795 -1.10217e-14 	0 	0 	
0.805 5.51079e-14 	0 	0 	
0.815 -2.20431e-14 	0 	0 	
0.825 1.10216e-14 	0 	0 	
0.835 2.20431e-14 	0 	0 	
0.845 5.00068e-20 	0 	0 	
0.855 5.51079e-14 	0 	0 	
0.865 -3.30647e-14 	0 	0 	
0.875 1.10215e-14 	0 	0 	
0.885 9.91939e-14 	0 	0 	
0.895 -2.20432e-14 	0 	0 	
0.905 -1.24996e-19 	0 	0 	
0.915 2.20432e-14 	0 	0 	
0.925 -1.10216e-14 	0 	0 	
0.935 -5.51078e-14 	0 	0 	
0.945 1.10216e-14 	0 	0 	
0.955 3.30646e-14 	0 	0 	
0.965 2.49973e-20 	0 	0 	
0.975 8.81727e-14 	0 	0 	
0.985 -6.61295e-14 	0 	0 	
0.995 -2.20433e-14 	0 	0 	
