0.005 8.20406e-14 	0 	0 	
0.015 -1.71478e-13 	0 	0 	
0.025 6.72475e-15 	0 	0 	
0.035 4.70724e-15 	0 	0 	
0.045 3.36231e-14 	0 	0 	
0.055 -3.09332e-14 	0 	0 	
0.065 6.45566e-14 	0 	0 	
0.075 5.71595e-14 	0 	0 	
0.085 -2.55536e-14 	0 	0 	
0.095 -4.43827e-14 	0 	0 	
0.105 -1.56012e-13 	0 	0 	
0.115 -8.60754e-14 	1.11988e-29 	0 	
0.125 -1.84927e-13 	0 	0 	
0.135 -1.34492e-13 	0 	0 	
0.145 -2.23258e-13 	0 	0 	
0.155 -1.90307e-13 	0 	0 	
0.165 5.78322e-14 	0 	0 	
0.175 -2.1855e-13 	0 	0 	
0.185 -7.93507e-14 	0 	0 	
0.195 -1.44579e-13 	0 	0 	
0.205 4.10202e-14 	0 	0 	
0.215 6.18663e-14 	0 	0 	
0.225 -4.03479e-14 	0 	0 	
0.235 -1.22388e-13 	0 	0 	
0.245 -8.13681e-14 	0 	0 	
0.255 -3.36233e-14 	0 	0 	
0.265 3.9003e-14 	0 	0 	
0.275 2.84317e-11 	0 	0 	
0.285 5.40041e-09 	0 	0 	
0.295 5.23331e-07 	0 	0 	
0.305 2.4974e-05 	0 	0 	
0.315 0.000645629 	0 	0 	
0.325 0.00996488 	0 	0 	
0.335 0.0965963 	0 	0 	
0.345 0.590189 	0 	0 	
0.355 2.39031 	0 	0 	
0.365 6.86218 	0 	0 	
0.375 14.9378 	0 	0 	
0.385 26.5853 	0 	0 	
0.395 41.1094 	0 	0 	
0.405 57.6249 	0 	0 	
0.415 75.2479 	0 	0 	
0.425 93.0282 	0 	0 	
0.435 109.524 	0 	0 	
0.445 122.255 	0 	0 	
0.455 128.691 	0 	0 	
0.465 130.122 	0 	0 	
0.475 130.189 	0 	0 	
0.485 130.167 	0 	0 	
0.495 130.149 	0 	0 	
0.505 130.135 	0 	0 	
0.515 130.124 	0 	0 	
0.525 130.115 	0 	0 	
0.535 130.106 	0 	0 	
0.545 130.098 	0 	0 	
0.555 130.09 	0 	0 	
0.565 130.082 	0 	0 	
0.575 130.072 	0 	0 	
0.585 130.06 	0 	0 	
0.595 130.044 	0 	0 	
0.605 130.022 	0 	0 	
0.615 129.972 	0 	0 	
0.625 130.007 	0 	0 	
0.635 120.462 	0 	0 	
0.645 67.03 	0 	0 	
0.655 63.6934 	0 	0 	
0.665 15.1635 	0 	0 	
0.675 0.744505 	0 	0 	
0.685 0.0246216 	0 	0 	
0.695 0.000580244 	0 	0 	
0.705 8.34652e-06 	0 	0 	
0.715 6.43231e-08 	0 	0 	
0.725 2.70274e-10 	0 	0 	
0.735 3.45477e-13 	0 	0 	
0.745 -4.33738e-14 	0 	0 	
0.755 -1.37182e-13 	0 	0 	
0.765 8.06952e-15 	0 	0 	
0.775 -4.79131e-14 	0 	0 	
0.785 4.40738e-25 	0 	0 	
0.795 -1.06417e-13 	0 	0 	
0.805 -2.92521e-14 	0 	0 	
0.815 4.53915e-15 	0 	0 	
0.825 -4.03477e-14 	0 	0 	
0.835 9.22957e-14 	0 	0 	
0.845 -8.06937e-15 	0 	0 	
0.855 -5.0435e-14 	0 	0 	
0.865 7.31305e-14 	0 	0 	
0.875 1.49995e-19 	0 	0 	
0.885 -5.54782e-15 	0 	0 	
0.895 1.17009e-13 	0 	0 	
0.905 9.58256e-15 	0 	0 	
0.915 -7.91823e-14 	0 	0 	
0.925 1.51302e-14 	0 	0 	
0.935 -4.84173e-14 	0 	0 	
0.945 -8.81447e-25 	0 	0 	
0.955 2.62261e-14 	0 	0 	
0.965 -1.972e-13 	0 	0 	
0.975 1.7652e-14 	0 	0 	
0.985 4.13566e-14 	0 	0 	
0.995 7.06086e-15 	0 	0 	
