0.005 8.67479e-14 	0 	0 	
0.015 -5.64868e-14 	0 	0 	
0.025 1.27768e-13 	0 	0 	
0.035 1.96359e-13 	0 	0 	
0.045 -8.20405e-14 	0 	0 	
0.055 1.05577e-13 	0 	0 	
0.065 -4.90898e-14 	0 	0 	
0.075 6.38837e-14 	0 	0 	
0.085 2.55535e-14 	0 	0 	
0.095 2.21914e-14 	0 	0 	
0.105 -3.16056e-14 	0 	0 	
0.115 -1.88288e-14 	5.13276e-30 	0 	
0.125 -1.68116e-14 	0 	0 	
0.135 -7.39706e-15 	0 	0 	
0.145 -1.32475e-13 	0 	0 	
0.155 -1.21045e-14 	0 	0 	
0.165 -1.13646e-13 	0 	0 	
0.175 1.10956e-13 	0 	0 	
0.185 -1.49959e-13 	0 	0 	
0.195 6.72464e-14 	0 	0 	
0.205 1.08267e-13 	0 	0 	
0.215 -3.42955e-14 	0 	0 	
0.225 1.68115e-14 	0 	0 	
0.235 8.13677e-14 	0 	0 	
0.245 -2.79072e-13 	0 	0 	
0.255 -1.10956e-13 	0 	0 	
0.265 1.07594e-14 	0 	0 	
0.275 -3.36231e-14 	0 	0 	
0.285 -6.79185e-14 	0 	0 	
0.295 -2.48813e-14 	0 	0 	
0.305 2.08461e-14 	0 	0 	
0.315 -4.90896e-14 	0 	0 	
0.325 9.4145e-14 	0 	0 	
0.335 1.08939e-13 	0 	0 	
0.345 1.34514e-15 	0 	0 	
0.355 -1.22388e-13 	0 	0 	
0.365 3.7658e-14 	0 	0 	
0.375 -8.4058e-14 	0 	0 	
0.385 -9.75075e-14 	0 	0 	
0.395 4.89312e-07 	0 	0 	
0.405 0.000360548 	0 	0 	
0.415 0.0293905 	0 	0 	
0.425 0.620291 	0 	0 	
0.435 4.90033 	0 	0 	
0.445 18.5263 	0 	0 	
0.455 43.5223 	0 	0 	
0.465 76.5381 	0 	0 	
0.475 109.75 	0 	0 	
0.485 128.148 	0 	0 	
0.495 130.212 	0 	0 	
0.505 130.174 	0 	0 	
0.515 130.139 	0 	0 	
0.525 130.108 	0 	0 	
0.535 130.068 	0 	0 	
0.545 129.683 	0 	0 	
0.555 124.472 	0 	0 	
0.565 92.692 	0 	0 	
0.575 18.465 	0 	0 	
0.585 0.497325 	0 	0 	
0.595 0.00358631 	0 	0 	
0.605 3.25084e-06 	0 	0 	
0.615 1.10957e-14 	0 	0 	
0.625 3.7826e-14 	0 	0 	
0.635 -3.93393e-14 	0 	0 	
0.645 1.40713e-13 	0 	0 	
0.655 4.99302e-14 	0 	0 	
0.665 -1.21043e-14 	0 	0 	
0.675 2.0174e-14 	0 	0 	
0.685 4.58956e-14 	0 	0 	
0.695 5.44694e-14 	0 	0 	
0.705 2.42089e-14 	0 	0 	
0.715 2.52174e-15 	0 	0 	
0.725 6.5565e-14 	0 	0 	
0.735 4.03478e-15 	0 	0 	
0.745 -1.51808e-13 	0 	0 	
0.755 1.46259e-14 	0 	0 	
0.765 1.46261e-14 	0 	0 	
0.775 7.56514e-15 	0 	0 	
0.785 -1.23565e-13 	0 	0 	
0.795 6.80869e-14 	0 	0 	
0.805 -5.44696e-14 	0 	0 	
0.815 7.61565e-14 	0 	0 	
0.825 1.26088e-14 	0 	0 	
0.835 3.83304e-14 	0 	0 	
0.845 3.37912e-14 	0 	0 	
0.855 -9.02781e-14 	0 	0 	
0.865 -6.20348e-14 	0 	0 	
0.875 -1.00001e-19 	0 	0 	
0.885 7.01042e-14 	0 	0 	
0.895 -2.67305e-14 	0 	0 	
0.905 3.37912e-14 	0 	0 	
0.915 -2.16872e-14 	0 	0 	
0.925 -3.78258e-14 	0 	0 	
0.935 6.65738e-14 	0 	0 	
0.945 -2.01728e-15 	0 	0 	
0.955 -9.8852e-14 	0 	0 	
0.965 2.16867e-14 	0 	0 	
0.975 -2.5219e-15 	0 	0 	
0.985 -1.69965e-13 	0 	0 	
0.995 1.76288e-24 	0 	0 	
