0.005 -6.06922e-14 	0 	0 	
0.015 4.85536e-14 	0 	0 	
0.025 -1.38725e-13 	0 	0 	
0.035 1.35257e-13 	0 	0 	
0.045 -1.21386e-14 	0 	0 	
0.055 3.46813e-14 	0 	0 	
0.065 5.72241e-14 	0 	0 	
0.075 1.73406e-13 	0 	0 	
0.085 1.23118e-13 	1.39577e-29 	0 	
0.095 -2.60107e-14 	0 	0 	
0.105 6.58942e-14 	0 	0 	
0.115 1.38725e-13 	-7.21947e-30 	0 	
0.125 -7.80326e-14 	6.97884e-30 	0 	
0.135 5.20235e-15 	0 	0 	
0.145 2.23694e-13 	0 	0 	
0.155 9.19052e-14 	0 	0 	
0.165 2.42768e-14 	0 	0 	
0.175 7.80327e-14 	0 	0 	
0.185 -6.41603e-14 	0 	0 	
0.195 -9.71072e-14 	0 	0 	
0.205 6.41603e-14 	0 	0 	
0.215 2.94793e-14 	0 	0 	
0.225 -6.06921e-14 	0 	0 	
0.235 -2.25428e-14 	0 	0 	
0.245 -9.01713e-14 	0 	0 	
0.255 2.08085e-14 	0 	0 	
0.265 -2.25428e-14 	0 	0 	
0.275 -3.46812e-14 	0 	0 	
0.285 5.37558e-14 	0 	0 	
0.295 -3.64151e-14 	0 	0 	
0.305 -1.85544e-13 	0 	0 	
0.315 -1.38723e-14 	0 	0 	
0.325 -4.33516e-14 	0 	0 	
0.335 1.54158e-12 	0 	0 	
0.345 7.4653e-09 	0 	0 	
0.355 3.03254e-06 	0 	0 	
0.365 0.00030328 	0 	0 	
0.375 0.0109938 	0 	0 	
0.385 0.174709 	0 	0 	
0.395 1.37081 	0 	0 	
0.405 5.96093 	0 	0 	
0.415 16.4702 	0 	0 	
0.425 33.3024 	0 	0 	
0.435 54.9699 	0 	0 	
0.445 79.2939 	0 	0 	
0.455 103.36 	0 	0 	
0.465 121.959 	0 	0 	
0.475 129.453 	0 	0 	
0.485 130.201 	0 	0 	
0.495 130.175 	0 	0 	
0.505 130.148 	0 	0 	
0.515 130.126 	0 	0 	
0.525 130.1 	0 	0 	
0.535 130.061 	0 	0 	
0.545 129.998 	0 	0 	
0.555 129.886 	0 	0 	
0.565 129.761 	0 	0 	
0.575 129.146 	0 	0 	
0.585 116.11 	0 	0 	
0.595 -1193.61 	0 	0 	
0.605 372.275 	0 	0 	
0.615 12.8647 	0 	0 	
0.625 0.346272 	0 	0 	
0.635 0.00528342 	0 	0 	
0.645 3.47734e-05 	0 	0 	
0.655 6.21239e-08 	0 	0 	
0.665 9.31192e-12 	0 	0 	
0.675 1.95083e-14 	0 	0 	
0.685 -1.4306e-14 	0 	0 	
0.695 2.6011e-14 	0 	0 	
0.705 2.21093e-13 	0 	0 	
0.715 -5.98248e-14 	0 	0 	
0.725 1.69071e-13 	0 	0 	
0.735 -1.30037e-15 	0 	0 	
0.745 1.95082e-14 	0 	0 	
0.755 -4.03166e-14 	0 	0 	
0.765 4.42187e-14 	0 	0 	
0.775 -6.50288e-15 	0 	0 	
0.785 -2.86122e-14 	0 	0 	
0.795 -4.29182e-14 	0 	0 	
0.805 7.8033e-14 	0 	0 	
0.815 -5.46231e-14 	0 	0 	
0.825 -3.90164e-14 	0 	0 	
0.835 2.73115e-14 	0 	0 	
0.845 -2.601e-15 	0 	0 	
0.855 -4.29181e-14 	0 	0 	
0.865 -1.36557e-13 	0 	0 	
0.875 -7.15298e-14 	0 	0 	
0.885 8.19342e-14 	0 	0 	
0.895 3.90163e-15 	0 	0 	
0.905 -5.20215e-14 	0 	0 	
0.915 -2.6271e-13 	0 	0 	
0.925 1.30054e-14 	0 	0 	
0.935 -9.10367e-15 	0 	0 	
0.945 -4.94208e-14 	0 	0 	
0.955 -1.04043e-14 	0 	0 	
0.965 -2.30196e-13 	0 	0 	
0.975 1.04044e-13 	0 	0 	
0.985 -1.14448e-13 	0 	0 	
0.995 4.42183e-14 	0 	0 	
