0.005 1.82794e-24 	0 	0 	
0.015 4.40862e-14 	0 	0 	
0.025 -7.34768e-14 	0 	0 	
0.035 -7.34771e-14 	0 	0 	
0.045 -8.81724e-14 	0 	0 	
0.055 2.93908e-14 	0 	0 	
0.065 1.17563e-13 	0 	0 	
0.075 2.93913e-14 	0 	0 	
0.085 7.34772e-14 	0 	0 	
0.095 5.87818e-14 	0 	0 	
0.105 1.02868e-13 	0 	0 	
0.115 4.40863e-14 	0 	0 	
0.125 1.6165e-13 	0 	0 	
0.135 1.6165e-13 	0 	0 	
0.145 1.32259e-13 	0 	0 	
0.155 1.76345e-13 	0 	0 	
0.165 2.49822e-13 	0 	0 	
0.175 2.64518e-13 	0 	0 	
0.185 1.91041e-13 	0 	0 	
0.195 -2.93908e-14 	0 	0 	
0.205 -1.02868e-13 	0 	0 	
0.215 -2.93909e-14 	0 	0 	
0.225 -4.40863e-14 	0 	0 	
0.235 -7.34771e-14 	0 	0 	
0.245 2.93908e-13 	0 	0 	
0.255 4.66727e-11 	0 	0 	
0.265 3.78651e-09 	0 	0 	
0.275 1.87572e-07 	0 	0 	
0.285 5.95506e-06 	0 	0 	
0.295 0.000125284 	0 	0 	
0.305 0.0017902 	0 	0 	
0.315 0.0176949 	0 	0 	
0.325 0.122711 	0 	0 	
0.335 0.60551 	0 	0 	
0.345 2.17172 	0 	0 	
0.355 5.8671 	0 	0 	
0.365 12.5447 	0 	0 	
0.375 22.3982 	0 	0 	
0.385 35.0188 	0 	0 	
0.395 49.7288 	0 	0 	
0.405 65.81 	0 	0 	
0.415 82.5246 	0 	0 	
0.425 98.9443 	0 	0 	
0.435 113.586 	0 	0 	
0.445 124.175 	0 	0 	
0.455 129.093 	0 	0 	
0.465 130.141 	0 	0 	
0.475 130.193 	0 	0 	
0.485 130.171 	0 	0 	
0.495 130.154 	0 	0 	
0.505 130.14 	0 	0 	
0.515 130.129 	0 	0 	
0.525 130.119 	0 	0 	
0.535 130.111 	0 	0 	
0.545 130.103 	0 	0 	
0.555 130.096 	0 	0 	
0.565 130.089 	0 	0 	
0.575 130.082 	0 	0 	
0.585 130.074 	0 	0 	
0.595 130.066 	0 	0 	
0.605 130.057 	0 	0 	
0.615 130.041 	0 	0 	
0.625 129.965 	0 	0 	
0.635 129.478 	0 	0 	
0.645 126.679 	0 	0 	
0.655 113.416 	0 	0 	
0.665 69.3721 	0 	0 	
0.675 14.6141 	0 	0 	
0.685 1.16817 	0 	0 	
0.695 0.0670458 	0 	0 	
0.705 0.00303533 	0 	0 	
0.715 0.000103432 	0 	0 	
0.725 2.51211e-06 	0 	0 	
0.735 4.11664e-08 	0 	0 	
0.745 4.2842e-10 	0 	0 	
0.755 2.54598e-12 	0 	0 	
0.765 -1.10216e-13 	0 	0 	
0.775 -1.10216e-13 	0 	0 	
0.785 -1.54302e-13 	0 	0 	
0.795 -6.61295e-14 	0 	0 	
0.805 -7.71509e-14 	0 	0 	
0.815 -1.10216e-13 	0 	0 	
0.825 -6.61294e-14 	0 	0 	
0.835 -3.30647e-14 	0 	0 	
0.845 -2.20432e-14 	0 	0 	
0.855 1.10215e-14 	0 	0 	
0.865 1.21237e-13 	0 	0 	
0.875 4.40862e-14 	0 	0 	
0.885 5.51079e-14 	0 	0 	
0.895 7.71511e-14 	0 	0 	
0.905 -1.10214e-14 	0 	0 	
0.915 5.51079e-14 	0 	0 	
0.925 4.40863e-14 	0 	0 	
0.935 1.21237e-13 	0 	0 	
0.945 -5.51079e-14 	0 	0 	
0.955 1.43281e-13 	0 	0 	
0.965 3.30648e-14 	0 	0 	
0.975 7.71511e-14 	0 	0 	
0.985 -4.99959e-20 	0 	0 	
0.995 -2.2043e-14 	0 	0 	
