0.005 6.07704e-14 	0 	0 	
0.015 1.17563e-13 	0 	0 	
0.025 1.38137e-13 	0 	0 	
0.035 1.35198e-13 	0 	0 	
0.045 1.35198e-13 	0 	0 	
0.055 1.11685e-13 	0 	0 	
0.065 5.87818e-14 	0 	0 	
0.075 -1.46955e-14 	0 	0 	
0.085 -9.69899e-14 	0 	0 	
0.095 -1.46954e-13 	0 	0 	
0.105 -1.73406e-13 	0 	0 	
0.115 -1.82223e-13 	0 	0 	
0.125 -1.73406e-13 	0 	0 	
0.135 -1.96919e-13 	0 	0 	
0.145 -2.41005e-13 	-3.26305e-31 	0 	
0.155 -2.67457e-13 	0 	0 	
0.165 -2.79213e-13 	0 	0 	
0.175 -2.43944e-13 	0 	0 	
0.185 -1.41076e-13 	0 	0 	
0.195 -3.23299e-14 	0 	0 	
0.205 5.87818e-15 	0 	0 	
0.215 7.83129e-30 	0 	0 	
0.225 2.05736e-14 	0 	0 	
0.235 4.40863e-14 	6.52609e-31 	0 	
0.245 6.46598e-14 	0 	0 	
0.255 1.02868e-13 	0 	0 	
0.265 1.26381e-13 	0 	0 	
0.275 1.38137e-13 	0 	0 	
0.285 1.49893e-13 	0 	0 	
0.295 1.23442e-13 	0 	0 	
0.305 7.64162e-14 	0 	0 	
0.315 6.17208e-14 	0 	0 	
0.325 5.87817e-14 	0 	0 	
0.335 2.64518e-14 	0 	0 	
0.345 -2.35127e-14 	0 	0 	
0.355 0.138643 	0 	0 	
0.365 2.4089 	0 	0 	
0.375 10.0851 	0 	0 	
0.385 23.3493 	0 	0 	
0.395 39.6368 	0 	0 	
0.405 57.0297 	0 	0 	
0.415 74.5498 	0 	0 	
0.425 91.3927 	0 	0 	
0.435 106.537 	0 	0 	
0.445 118.664 	0 	0 	
0.455 126.23 	0 	0 	
0.465 129.352 	0 	0 	
0.475 130.346 	0 	0 	
0.485 130.687 	0 	0 	
0.495 130.634 	0 	0 	
0.505 130.409 	0 	0 	
0.515 130.139 	0 	0 	
0.525 129.926 	0 	0 	
0.535 129.85 	0 	0 	
0.545 129.953 	0 	0 	
0.555 130.167 	0 	0 	
0.565 130.3 	0 	0 	
0.575 130.213 	-2.01443e-30 	0 	
0.585 129.989 	-1.18634e-30 	0 	
0.595 129.873 	0 	0 	
0.605 129.944 	0 	0 	
0.615 129.899 	0 	0 	
0.625 128.783 	0 	0 	
0.635 121.876 	0 	0 	
0.645 97.6223 	0 	0 	
0.655 54.1407 	0 	0 	
0.665 15.844 	0 	0 	
0.675 1.33937 	0 	0 	
0.685 2.20431e-14 	0 	0 	
0.695 5.73122e-14 	0 	0 	
0.705 2.42475e-14 	0 	0 	
0.715 4.40862e-15 	0 	0 	
0.725 5.06992e-14 	0 	0 	
0.735 8.15597e-14 	0 	0 	
0.745 7.27424e-14 	0 	0 	
0.755 5.51079e-14 	0 	0 	
0.765 4.1882e-14 	0 	0 	
0.775 3.96777e-14 	0 	0 	
0.785 2.86561e-14 	0 	0 	
0.795 2.20433e-15 	0 	0 	
0.805 -1.76345e-14 	0 	0 	
0.815 -1.10216e-14 	-4.89455e-31 	0 	
0.825 1.10216e-14 	0 	0 	
0.835 3.08604e-14 	0 	0 	
0.845 4.1882e-14 	0 	0 	
0.855 3.30647e-14 	0 	0 	
0.865 8.81726e-15 	0 	0 	
0.875 -1.76345e-14 	0 	0 	
0.885 -4.62906e-14 	0 	0 	
0.895 -5.95165e-14 	0 	0 	
0.905 -3.52691e-14 	0 	0 	
0.915 2.2043e-15 	0 	0 	
0.925 1.76345e-14 	0 	0 	
0.935 2.20431e-14 	0 	0 	
0.945 3.96776e-14 	0 	0 	
0.955 5.06993e-14 	0 	0 	
0.965 3.30647e-14 	0 	0 	
0.975 3.5269e-14 	0 	0 	
0.985 5.95165e-14 	0 	0 	
0.995 4.33735e-14 	0 	0 	
