0.005 3.81491e-14 	0 	0 	
0.015 -2.4277e-14 	0 	0 	
0.025 -4.33515e-14 	0 	0 	
0.035 3.29471e-14 	0 	0 	
0.045 9.53733e-14 	0 	0 	
0.055 -6.24261e-14 	0 	0 	
0.065 4.85537e-14 	0 	0 	
0.075 3.46812e-14 	0 	0 	
0.085 -5.0288e-14 	6.73817e-30 	0 	
0.095 1.36991e-13 	0 	0 	
0.105 -4.16175e-14 	0 	0 	
0.115 1.17916e-13 	-3.60973e-30 	0 	
0.125 1.38725e-13 	3.60973e-30 	0 	
0.135 -1.04044e-13 	0 	0 	
0.145 -1.56067e-14 	0 	0 	
0.155 2.6011e-14 	0 	0 	
0.165 5.8958e-14 	0 	0 	
0.175 6.06921e-14 	0 	0 	
0.185 5.37559e-14 	0 	0 	
0.195 -6.06922e-14 	0 	0 	
0.205 1.26586e-13 	0 	0 	
0.215 -5.87635e-25 	0 	0 	
0.225 8.67032e-14 	0 	0 	
0.235 9.01713e-14 	0 	0 	
0.245 1.56065e-13 	0 	0 	
0.255 -5.89582e-14 	0 	0 	
0.265 -1.04043e-14 	0 	0 	
0.275 8.6703e-15 	0 	0 	
0.285 5.2022e-15 	0 	0 	
0.295 -9.19054e-14 	0 	0 	
0.305 -2.94793e-14 	0 	0 	
0.315 -3.29472e-14 	0 	0 	
0.325 -7.80327e-14 	0 	0 	
0.335 -7.10967e-14 	0 	0 	
0.345 7.28306e-14 	0 	0 	
0.355 -1.16182e-13 	0 	0 	
0.365 4.68196e-14 	0 	0 	
0.375 -5.87646e-25 	0 	0 	
0.385 -1.47395e-13 	0 	0 	
0.395 -1.6647e-13 	0 	0 	
0.405 -1.31789e-13 	0 	0 	
0.415 -1.90747e-14 	0 	0 	
0.425 0.000309281 	0 	0 	
0.435 0.0666607 	0 	0 	
0.445 1.73323 	0 	0 	
0.455 12.2954 	0 	0 	
0.465 39.3627 	0 	0 	
0.475 79.9903 	0 	0 	
0.485 118.672 	0 	0 	
0.495 130.106 	0 	0 	
0.505 130.182 	0 	0 	
0.515 130.132 	0 	0 	
0.525 130.05 	0 	0 	
0.535 127.989 	0 	0 	
0.545 110.139 	0 	0 	
0.555 36.924 	0 	0 	
0.565 0.933243 	0 	0 	
0.575 0.00241091 	0 	0 	
0.585 8.45352e-14 	0 	0 	
0.595 1.01443e-13 	0 	0 	
0.605 3.90165e-15 	0 	0 	
0.615 7.80323e-15 	0 	0 	
0.625 -4.55189e-14 	0 	0 	
0.635 -1.82077e-14 	0 	0 	
0.645 3.2514e-14 	0 	0 	
0.655 -4.94204e-14 	0 	0 	
0.665 1.11847e-13 	0 	0 	
0.675 2.60109e-14 	0 	0 	
0.685 1.1965e-13 	0 	0 	
0.695 1.03961e-29 	0 	0 	
0.705 1.00142e-13 	0 	0 	
0.715 -1.4306e-14 	0 	0 	
0.725 1.17049e-13 	0 	0 	
0.735 -2.8612e-14 	0 	0 	
0.745 3.51147e-14 	0 	0 	
0.755 -5.20192e-15 	0 	0 	
0.765 3.3814e-14 	0 	0 	
0.775 -3.9016e-14 	0 	0 	
0.785 1.95082e-13 	0 	0 	
0.795 7.15302e-14 	0 	0 	
0.805 8.06337e-14 	0 	0 	
0.815 -5.2022e-14 	0 	0 	
0.825 2.60105e-14 	0 	0 	
0.835 -2.60109e-14 	0 	0 	
0.845 -1.17049e-14 	0 	0 	
0.855 -2.86118e-14 	0 	0 	
0.865 4.5519e-14 	0 	0 	
0.875 1.30054e-14 	0 	0 	
0.885 4.16174e-14 	0 	0 	
0.895 1.23552e-13 	0 	0 	
0.905 6.89288e-14 	0 	0 	
0.915 -1.4306e-14 	0 	0 	
0.925 1.32221e-24 	0 	0 	
0.935 -2.47102e-14 	0 	0 	
0.945 -5.46229e-14 	0 	0 	
0.955 -1.11847e-13 	0 	0 	
0.965 2.34097e-14 	0 	0 	
0.975 1.36557e-13 	0 	0 	
0.985 -2.18492e-13 	0 	0 	
0.995 2.34094e-14 	0 	0 	
