0.005 6.466e-14 	0 	0 	
0.015 -1.05072e-13 	0 	0 	
0.025 -1.61649e-13 	0 	0 	
0.035 6.46601e-14 	0 	0 	
0.045 8.89075e-14 	0 	0 	
0.055 6.466e-14 	0 	0 	
0.065 -4.04125e-14 	0 	0 	
0.075 8.08246e-14 	0 	0 	
0.085 8.08245e-14 	0 	0 	
0.095 1.6165e-14 	0 	0 	
0.105 4.84946e-14 	0 	0 	
0.115 -1.6165e-14 	0 	0 	
0.125 4.04125e-14 	0 	0 	
0.135 -8.08238e-15 	0 	0 	
0.145 4.8495e-14 	0 	0 	
0.155 2.42479e-14 	0 	0 	
0.165 -1.21237e-13 	0 	0 	
0.175 -2.42475e-14 	0 	0 	
0.185 -8.08249e-14 	0 	0 	
0.195 8.08249e-15 	0 	0 	
0.205 1.05072e-13 	0 	0 	
0.215 1.13155e-13 	0 	0 	
0.225 1.37402e-13 	0 	0 	
0.235 -8.0825e-14 	0 	0 	
0.245 3.233e-14 	0 	0 	
0.255 8.08245e-15 	0 	0 	
0.265 3.233e-14 	0 	0 	
0.275 -8.08246e-14 	0 	0 	
0.285 -2.42475e-14 	0 	0 	
0.295 -4.04121e-14 	0 	0 	
0.305 9.58582e-12 	0 	0 	
0.315 4.34262e-09 	6.95435e-30 	0 	
0.325 6.2526e-07 	0 	0 	
0.335 4.02995e-05 	-6.73002e-30 	0 	
0.345 0.00126727 	0 	0 	
0.355 0.0217836 	-3.5896e-30 	0 	
0.365 0.213418 	1.34678e-29 	0 	
0.375 1.25969 	0 	0 	
0.385 4.74644 	2.27389e-31 	0 	
0.395 12.4479 	0 	0 	
0.405 24.9869 	2.41553e-30 	0 	
0.415 41.6697 	0 	0 	
0.425 61.2174 	-1.48583e-30 	0 	
0.435 82.1835 	0 	0 	
0.445 102.678 	-1.85036e-30 	0 	
0.455 119.438 	-2.61802e-30 	0 	
0.465 128.28 	-2.68787e-30 	0 	
0.475 130.134 	0 	0 	
0.485 130.193 	0 	0 	
0.495 130.167 	-8.46295e-31 	0 	
0.505 130.147 	-7.61994e-31 	0 	
0.515 130.131 	0 	0 	
0.525 130.119 	0 	0 	
0.535 130.106 	0 	0 	
0.545 130.097 	0 	0 	
0.555 130.085 	0 	0 	
0.565 130.075 	0 	0 	
0.575 130.063 	0 	0 	
0.585 130.039 	0 	0 	
0.595 129.884 	0 	0 	
0.605 128.64 	0 	0 	
0.615 120.476 	0 	0 	
0.625 83.7206 	0 	0 	
0.635 18.3791 	0 	0 	
0.645 1.00648 	0 	0 	
0.655 0.0320033 	0 	0 	
0.665 0.000658252 	0 	0 	
0.675 7.34379e-06 	0 	0 	
0.685 3.96856e-08 	0 	0 	
0.695 7.15544e-11 	0 	0 	
0.705 -6.0618e-15 	0 	0 	
0.715 -8.48662e-14 	0 	0 	
0.725 -3.03095e-14 	0 	0 	
0.735 9.69899e-14 	0 	0 	
0.745 1.76288e-24 	0 	0 	
0.755 5.4557e-14 	0 	0 	
0.765 5.45569e-14 	0 	0 	
0.775 3.03094e-14 	0 	0 	
0.785 -1.09114e-13 	0 	0 	
0.795 1.09114e-13 	0 	0 	
0.805 1.21238e-14 	0 	0 	
0.815 4.24331e-14 	0 	0 	
0.825 -6.0619e-15 	0 	0 	
0.835 -3.03093e-14 	0 	0 	
0.845 -4.84951e-14 	0 	0 	
0.855 -6.66805e-14 	0 	0 	
0.865 3.03093e-14 	0 	0 	
0.875 1.38286e-20 	0 	0 	
0.885 9.09282e-14 	0 	0 	
0.895 6.06187e-14 	0 	0 	
0.905 9.699e-14 	0 	0 	
0.915 -8.48663e-14 	0 	0 	
0.925 -5.45569e-14 	0 	0 	
0.935 -1.21238e-13 	0 	0 	
0.945 -6.06188e-14 	0 	0 	
0.955 -1.11171e-19 	0 	0 	
0.965 -1.81856e-14 	0 	0 	
0.975 1.81856e-14 	0 	0 	
0.985 6.06186e-14 	0 	0 	
0.995 4.84949e-14 	0 	0 	
