0.005 6.07704e-14 	0 	0 	
0.015 1.20502e-13 	0 	0 	
0.025 1.49893e-13 	0 	0 	
0.035 1.52832e-13 	0 	0 	
0.045 1.38137e-13 	0 	0 	
0.055 9.69898e-14 	0 	0 	
0.065 4.40863e-14 	0 	0 	
0.075 -1.76345e-14 	0 	0 	
0.085 -8.22945e-14 	0 	0 	
0.095 -1.32259e-13 	0 	0 	
0.105 -1.76345e-13 	0 	0 	
0.115 -1.96919e-13 	0 	0 	
0.125 -1.88102e-13 	0 	0 	
0.135 -2.11614e-13 	0 	0 	
0.145 -2.61578e-13 	-3.26305e-31 	0 	
0.155 -2.90969e-13 	0 	0 	
0.165 -3.05665e-13 	0 	0 	
0.175 -2.73335e-13 	0 	0 	
0.185 -1.6165e-13 	0 	0 	
0.195 -4.11472e-14 	0 	0 	
0.205 -5.87815e-15 	0 	0 	
0.215 -1.46954e-14 	0 	0 	
0.225 1.46954e-14 	0 	0 	
0.235 4.40863e-14 	6.52609e-31 	0 	
0.245 6.46598e-14 	0 	0 	
0.255 1.02868e-13 	0 	0 	
0.265 1.26381e-13 	0 	0 	
0.275 1.46954e-13 	0 	0 	
0.285 1.70467e-13 	0 	0 	
0.295 1.44015e-13 	0 	0 	
0.305 9.11116e-14 	0 	0 	
0.315 6.7599e-14 	0 	0 	
0.325 4.11472e-14 	0 	0 	
0.335 -2.64517e-14 	0 	0 	
0.345 0.137641 	0 	0 	
0.355 2.30616 	0 	0 	
0.365 9.55845 	0 	0 	
0.375 22.0059 	0 	0 	
0.385 37.2538 	0 	0 	
0.395 53.5758 	0 	0 	
0.405 70.1414 	0 	0 	
0.415 86.3244 	0 	0 	
0.425 101.372 	0 	0 	
0.435 114.168 	0 	0 	
0.445 123.493 	0 	0 	
0.455 128.514 	0 	0 	
0.465 129.998 	0 	0 	
0.475 130.162 	0 	0 	
0.485 130.225 	0 	0 	
0.495 130.323 	0 	0 	
0.505 130.455 	0 	0 	
0.515 130.462 	0 	0 	
0.525 130.265 	0 	0 	
0.535 129.977 	0 	0 	
0.545 129.82 	0 	0 	
0.555 129.885 	0 	0 	
0.565 130.085 	0 	0 	
0.575 130.239 	-2.65541e-30 	0 	
0.585 130.225 	-1.52242e-30 	0 	
0.595 130.095 	0 	0 	
0.605 129.968 	0 	0 	
0.615 129.895 	0 	0 	
0.625 129.787 	0 	0 	
0.635 129.135 	0 	0 	
0.645 124.723 	0 	0 	
0.655 106.064 	0 	0 	
0.665 66.0692 	0 	0 	
0.675 23.8199 	0 	0 	
0.685 3.37378 	0 	0 	
0.695 6.39251e-14 	0 	0 	
0.705 1.32259e-14 	0 	0 	
0.715 2.2043e-15 	0 	0 	
0.725 3.96776e-14 	0 	0 	
0.735 6.61294e-14 	0 	0 	
0.745 7.05381e-14 	0 	0 	
0.755 5.73122e-14 	0 	0 	
0.765 4.1882e-14 	0 	0 	
0.775 4.84949e-14 	0 	0 	
0.785 3.74734e-14 	0 	0 	
0.795 2.2043e-15 	0 	0 	
0.805 2.2043e-15 	0 	0 	
0.815 1.98388e-14 	-4.89455e-31 	0 	
0.825 2.20431e-14 	0 	0 	
0.835 3.08604e-14 	0 	0 	
0.845 3.96777e-14 	0 	0 	
0.855 2.42475e-14 	0 	0 	
0.865 -2.20431e-15 	0 	0 	
0.875 -2.20432e-14 	0 	0 	
0.885 -4.62906e-14 	0 	0 	
0.895 -5.73122e-14 	0 	0 	
0.905 -3.30647e-14 	0 	0 	
0.915 4.99984e-21 	0 	0 	
0.925 1.54302e-14 	0 	0 	
0.935 2.20431e-14 	0 	0 	
0.945 2.64517e-14 	0 	0 	
0.955 2.42475e-14 	0 	0 	
0.965 3.74733e-14 	0 	0 	
0.975 7.27423e-14 	0 	0 	
0.985 8.15596e-14 	0 	0 	
0.995 4.55778e-14 	0 	0 	
