0.005 -9.4051e-14 	0 	0 	
0.015 -4.70254e-14 	0 	0 	
0.025 4.70254e-14 	0 	0 	
0.035 7.0538e-14 	0 	0 	
0.045 -2.35127e-14 	0 	0 	
0.055 7.05383e-14 	0 	0 	
0.065 1.75461e-24 	0 	0 	
0.075 7.05381e-14 	0 	0 	
0.085 2.35126e-14 	0 	0 	
0.095 -2.35127e-14 	0 	0 	
0.105 2.35127e-14 	0 	0 	
0.115 -5.85172e-25 	0 	0 	
0.125 0 	0 	0 	
0.135 4.70254e-14 	0 	0 	
0.145 -2.35127e-14 	0 	0 	
0.155 -1.17563e-13 	0 	0 	
0.165 -2.35127e-14 	0 	0 	
0.175 -1.17564e-13 	0 	0 	
0.185 -4.70254e-14 	0 	0 	
0.195 -7.0538e-14 	0 	0 	
0.205 2.35127e-14 	6.52609e-30 	0 	
0.215 9.40508e-14 	0 	0 	
0.225 -4.70254e-14 	0 	0 	
0.235 -4.70254e-14 	0 	0 	
0.245 -2.35126e-14 	0 	0 	
0.255 2.35126e-14 	0 	0 	
0.265 -1.17563e-13 	0 	0 	
0.275 -9.40508e-14 	0 	0 	
0.285 -9.4051e-14 	0 	0 	
0.295 -1.17563e-13 	0 	0 	
0.305 -4.70254e-14 	0 	0 	
0.315 -4.70254e-14 	0 	0 	
0.325 -4.70256e-14 	0 	0 	
0.335 1.16623e-11 	0 	0 	
0.345 2.78675e-09 	0 	0 	
0.355 3.02548e-07 	0 	0 	
0.365 1.70008e-05 	0 	0 	
0.375 0.000535431 	0 	0 	
0.385 0.0099437 	0 	0 	
0.395 0.112489 	0 	0 	
0.405 0.793864 	0 	0 	
0.415 3.60555 	0 	0 	
0.425 11.1472 	0 	0 	
0.435 25.4153 	0 	0 	
0.445 46.3725 	0 	0 	
0.455 72.1268 	0 	0 	
0.465 99.082 	0 	0 	
0.475 120.567 	0 	0 	
0.485 129.362 	0 	0 	
0.495 130.223 	0 	0 	
0.505 130.191 	-4.93865e-31 	0 	
0.515 130.159 	1.38179e-30 	0 	
0.525 130.131 	-1.6801e-30 	0 	
0.535 130.103 	-8.03837e-31 	0 	
0.545 130.048 	-1.01088e-30 	0 	
0.555 129.678 	0 	0 	
0.565 126.967 	0 	0 	
0.575 113.328 	1.22892e-30 	0 	
0.585 71.0893 	3.90348e-31 	0 	
0.595 18.4141 	0 	0 	
0.605 1.90128 	0 	0 	
0.615 0.119291 	0 	0 	
0.625 0.00493916 	0 	0 	
0.635 0.00012836 	0 	0 	
0.645 1.94927e-06 	0 	0 	
0.655 1.57518e-08 	0 	0 	
0.665 5.90051e-11 	0 	0 	
0.675 8.81725e-14 	0 	0 	
0.685 1.30861e-24 	0 	0 	
0.695 -3.91565e-30 	0 	0 	
0.705 -4.35422e-25 	0 	0 	
0.715 -3.5269e-14 	0 	0 	
0.725 -8.81725e-14 	0 	0 	
0.735 -1.05807e-13 	0 	0 	
0.745 -1.30626e-24 	0 	0 	
0.755 -1.30626e-24 	-2.44728e-30 	0 	
0.765 -1.76345e-14 	0 	0 	
0.775 -3.5269e-14 	0 	0 	
0.785 -1.76345e-14 	0 	0 	
0.795 8.81725e-14 	-2.56964e-30 	0 	
0.805 7.0538e-14 	-2.44728e-30 	0 	
0.815 -1.76344e-14 	0 	0 	
0.825 -5.29035e-14 	0 	0 	
0.835 1.30392e-24 	0 	0 	
0.845 3.5269e-14 	0 	0 	
0.855 -3.52689e-14 	0 	0 	
0.865 7.0538e-14 	0 	0 	
0.875 8.81725e-14 	0 	0 	
0.885 5.29035e-14 	0 	0 	
0.895 1.76345e-14 	0 	0 	
0.905 -1.30394e-24 	0 	0 	
0.915 1.05807e-13 	0 	0 	
0.925 -3.5269e-14 	0 	0 	
0.935 -7.0538e-14 	0 	0 	
0.945 5.29035e-14 	0 	0 	
0.955 8.81725e-14 	0 	0 	
0.965 1.76346e-14 	0 	0 	
0.975 -7.05379e-14 	0 	0 	
0.985 -1.76345e-14 	0 	0 	
0.995 -3.5269e-14 	0 	0 	
