0.005 2.11614e-13 	0 	0 	
0.015 1.05807e-13 	0 	0 	
0.025 1.41076e-13 	0 	0 	
0.035 3.5269e-14 	0 	0 	
0.045 3.52689e-14 	0 	0 	
0.055 -3.5269e-14 	0 	0 	
0.065 -7.0538e-14 	0 	0 	
0.075 1.41076e-13 	0 	0 	
0.085 3.5269e-14 	0 	0 	
0.095 3.5269e-14 	0 	0 	
0.105 -7.0538e-14 	0 	0 	
0.115 -1.05807e-13 	0 	0 	
0.125 -3.5269e-14 	-2.81437e-30 	0 	
0.135 3.5269e-14 	0 	0 	
0.145 -3.5269e-14 	0 	0 	
0.155 7.0538e-14 	0 	0 	
0.165 1.41076e-13 	0 	0 	
0.175 -3.5269e-14 	-5.87348e-30 	0 	
0.185 -1.41076e-13 	-5.62874e-30 	0 	
0.195 1.41076e-13 	0 	0 	
0.205 3.52689e-14 	0 	0 	
0.215 2.63013e-24 	0 	0 	
0.225 9.57251e-29 	0 	0 	
0.235 -1.31448e-24 	0 	0 	
0.245 -1.05807e-13 	0 	0 	
0.255 2.82152e-13 	-6.85239e-30 	0 	
0.265 -7.0538e-14 	-6.11819e-30 	0 	
0.275 -2.11614e-13 	0 	0 	
0.285 1.05807e-13 	0 	0 	
0.295 -7.0538e-14 	0 	0 	
0.305 1.41076e-13 	0 	0 	
0.315 -1.05807e-13 	0 	0 	
0.325 -3.5269e-14 	0 	0 	
0.335 7.05381e-14 	0 	0 	
0.345 6.26505e-29 	0 	0 	
0.355 3.52689e-14 	-5.62874e-30 	0 	
0.365 1.68815e-09 	0 	0 	
0.375 3.33118e-06 	0 	0 	
0.385 0.000611057 	0 	0 	
0.395 0.0281362 	0 	0 	
0.405 0.460874 	0 	0 	
0.415 3.27765 	6.41771e-30 	0 	
0.425 12.2574 	5.31621e-30 	0 	
0.435 29.4805 	-1.99741e-30 	0 	
0.445 53.6271 	2.29328e-30 	0 	
0.455 81.6132 	-3.12754e-46 	0 	
0.465 108.719 	6.45319e-46 	0 	
0.475 126.264 	0 	0 	
0.485 130.126 	-2.76863e-31 	0 	
0.495 130.187 	0 	0 	
0.505 130.149 	-1.84875e-31 	0 	
0.515 130.106 	0 	0 	
0.525 130.038 	0 	0 	
0.535 129.892 	0 	0 	
0.545 -50168.9 	0 	0 	
0.555 -5.09281e+09 	0 	0 	
0.565 6.62253e+10 	0 	0 	
0.575 -4.09725e+08 	0 	0 	
0.585 1.63857e+09 	0 	0 	
0.595 1263.35 	0 	0 	
0.605 0.832431 	0 	0 	
0.615 0.0092016 	0 	0 	
0.625 3.22285e-05 	0 	0 	
0.635 1.14101e-08 	0 	0 	
0.645 2.6452e-14 	0 	0 	
0.655 -5.29035e-14 	0 	0 	
0.665 7.93553e-14 	0 	0 	
0.675 1.32258e-13 	0 	0 	
0.685 -1.05807e-13 	0 	0 	
0.695 -2.6452e-14 	0 	0 	
0.705 -7.93555e-14 	0 	0 	
0.715 -1.85162e-13 	0 	0 	
0.725 -2.64518e-14 	0 	0 	
0.735 -7.93555e-14 	0 	0 	
0.745 -2.38066e-13 	0 	0 	
0.755 5.29035e-14 	0 	0 	
0.765 5.29035e-14 	0 	0 	
0.775 7.93555e-14 	0 	0 	
0.785 -7.93552e-14 	0 	0 	
0.795 7.93555e-14 	0 	0 	
0.805 1.85163e-13 	0 	0 	
0.815 1.85162e-13 	0 	0 	
0.825 1.05807e-13 	0 	0 	
0.835 1.95587e-24 	0 	0 	
0.845 5.29035e-14 	0 	0 	
0.855 -5.29035e-14 	0 	0 	
0.865 2.64515e-14 	0 	0 	
0.875 -1.32259e-13 	0 	0 	
0.885 1.95587e-24 	0 	0 	
0.895 -2.64518e-14 	0 	0 	
0.905 -5.29035e-14 	0 	0 	
0.915 1.05807e-13 	0 	0 	
0.925 -3.91166e-24 	0 	0 	
0.935 -1.32259e-13 	0 	0 	
0.945 5.29037e-14 	0 	0 	
0.955 2.64518e-14 	0 	0 	
0.965 -5.29036e-14 	0 	0 	
0.975 -5.29035e-14 	0 	0 	
0.985 -7.93555e-14 	0 	0 	
0.995 -5.29035e-14 	0 	0 	
