0.005 -1.08893e-13 	0 	0 	
0.015 1.07218e-13 	0 	0 	
0.025 -2.51293e-14 	0 	0 	
0.035 5.02585e-15 	0 	0 	
0.045 5.02587e-15 	0 	0 	
0.055 5.86348e-14 	0 	0 	
0.065 1.05542e-13 	0 	0 	
0.075 5.02582e-14 	0 	0 	
0.085 3.85314e-14 	0 	0 	
0.095 1.5245e-13 	0 	0 	
0.105 1.00517e-14 	0 	0 	
0.115 7.70629e-14 	0 	0 	
0.125 6.70113e-14 	0 	0 	
0.135 1.59152e-13 	0 	0 	
0.145 -7.8738e-14 	0 	0 	
0.155 -2.51294e-14 	0 	0 	
0.165 1.8428e-14 	0 	0 	
0.175 1.08893e-13 	0 	0 	
0.185 1.8428e-14 	0 	0 	
0.195 -2.84801e-14 	0 	0 	
0.205 3.01551e-14 	0 	0 	
0.215 5.19336e-14 	0 	0 	
0.225 -4.18818e-14 	0 	0 	
0.235 7.03616e-14 	0 	0 	
0.245 7.8738e-14 	0 	0 	
0.255 2.3454e-14 	0 	0 	
0.265 6.7011e-15 	0 	0 	
0.275 3.22324e-11 	0 	0 	
0.285 6.58008e-09 	0 	0 	
0.295 5.66613e-07 	0 	0 	
0.305 2.58757e-05 	0 	0 	
0.315 0.000680405 	0 	0 	
0.325 0.0103581 	0 	0 	
0.335 0.09735 	0 	0 	
0.345 0.596561 	0 	0 	
0.355 2.41185 	0 	0 	
0.365 6.87597 	0 	0 	
0.375 14.9547 	0 	0 	
0.385 26.602 	0 	0 	
0.395 41.1143 	0 	0 	
0.405 57.6153 	0 	0 	
0.415 75.2297 	0 	0 	
0.425 92.9995 	-4.67038e-31 	0 	
0.435 109.497 	0 	0 	
0.445 122.229 	0 	0 	
0.455 128.676 	0 	0 	
0.465 130.121 	1.40175e-30 	0 	
0.475 130.189 	0 	0 	
0.485 130.167 	0 	0 	
0.495 130.149 	0 	0 	
0.505 130.135 	0 	0 	
0.515 130.124 	0 	0 	
0.525 130.115 	0 	0 	
0.535 130.107 	0 	0 	
0.545 130.099 	0 	0 	
0.555 130.091 	0 	0 	
0.565 130.084 	0 	0 	
0.575 130.076 	0 	0 	
0.585 130.067 	0 	0 	
0.595 130.057 	0 	0 	
0.605 130.042 	0 	0 	
0.615 130.005 	0 	0 	
0.625 129.895 	0 	0 	
0.635 122.362 	0 	0 	
0.645 93.2305 	0 	0 	
0.655 70.6795 	0 	0 	
0.665 15.0847 	0 	0 	
0.675 0.776663 	0 	0 	
0.685 0.0260107 	0 	0 	
0.695 0.000597048 	0 	0 	
0.705 9.05342e-06 	0 	0 	
0.715 7.92331e-08 	0 	0 	
0.725 3.07807e-10 	0 	0 	
0.735 3.76938e-13 	0 	0 	
0.745 1.75904e-14 	0 	0 	
0.755 2.51292e-14 	0 	0 	
0.765 1.45749e-13 	0 	0 	
0.775 1.13081e-13 	0 	0 	
0.785 6.91053e-14 	0 	0 	
0.795 -5.27713e-14 	0 	0 	
0.805 2.51293e-14 	0 	0 	
0.815 3.64374e-14 	0 	0 	
0.825 6.91054e-14 	0 	0 	
0.835 6.28229e-15 	0 	0 	
0.845 -2.38728e-14 	0 	0 	
0.855 8.66957e-14 	0 	0 	
0.865 1.89725e-13 	0 	0 	
0.875 -5.65406e-14 	0 	0 	
0.885 -2.51292e-14 	0 	0 	
0.895 2.51293e-14 	0 	0 	
0.905 -3.7694e-14 	0 	0 	
0.915 1.14338e-13 	0 	0 	
0.925 3.14115e-14 	0 	0 	
0.935 4.40941e-26 	0 	0 	
0.945 8.79522e-15 	0 	0 	
0.955 5.15147e-14 	0 	0 	
0.965 3.76938e-15 	0 	0 	
0.975 1.31928e-13 	0 	0 	
0.985 2.76421e-14 	0 	0 	
0.995 -7.53877e-15 	0 	0 	
