0.005 -2.11247e-14 	0 	0 	
0.015 1.68998e-13 	0 	0 	
0.025 -1.22523e-13 	0 	0 	
0.035 3.37995e-14 	0 	0 	
0.045 -5.87733e-26 	0 	0 	
0.055 4.22494e-14 	0 	0 	
0.065 -1.26748e-14 	-9.38125e-30 	0 	
0.075 -1.01398e-13 	0 	0 	
0.085 -1.68997e-14 	0 	0 	
0.095 -5.06992e-14 	0 	0 	
0.105 -5.06993e-14 	0 	0 	
0.115 -4.64743e-14 	0 	0 	
0.125 9.29486e-14 	0 	0 	
0.135 5.91491e-14 	0 	0 	
0.145 8.02738e-14 	0 	0 	
0.155 -1.26748e-14 	0 	0 	
0.165 2.15472e-13 	0 	0 	
0.175 1.01398e-13 	0 	0 	
0.185 3.37995e-14 	0 	0 	
0.195 1.14073e-13 	0 	0 	
0.205 1.73222e-13 	0 	0 	
0.215 4.64743e-14 	0 	0 	
0.225 -2.95746e-14 	0 	0 	
0.235 -6.7599e-14 	0 	0 	
0.245 7.18239e-14 	0 	0 	
0.255 1.26748e-14 	0 	0 	
0.265 1.11285e-11 	0 	0 	
0.275 2.15655e-09 	0 	0 	
0.285 2.00605e-07 	0 	0 	
0.295 1.01172e-05 	0 	0 	
0.305 0.000281439 	0 	0 	
0.315 0.00463858 	0 	0 	
0.325 0.0485298 	0 	0 	
0.335 0.329628 	0 	0 	
0.345 1.48249 	0 	0 	
0.355 4.6597 	0 	0 	
0.365 10.9697 	0 	0 	
0.375 20.7368 	-2.49585e-30 	0 	
0.385 33.4932 	0 	0 	
0.395 48.4637 	0 	0 	
0.405 64.8657 	0 	0 	
0.415 81.9306 	0 	0 	
0.425 98.7287 	0 	0 	
0.435 113.754 	0 	0 	
0.445 124.537 	-6.92877e-31 	0 	
0.455 129.286 	7.04856e-31 	0 	
0.465 130.161 	0 	0 	
0.475 130.184 	1.76792e-31 	0 	
0.485 130.163 	3.53619e-31 	0 	
0.495 130.146 	0 	0 	
0.505 130.133 	0 	0 	
0.515 130.123 	1.7698e-31 	0 	
0.525 130.114 	0 	0 	
0.535 130.105 	0 	0 	
0.545 130.096 	0 	0 	
0.555 130.085 	-4.80611e-30 	0 	
0.565 130.071 	0 	0 	
0.575 130.051 	0 	0 	
0.585 130.02 	0 	0 	
0.595 129.978 	0 	0 	
0.605 129.91 	0 	0 	
0.615 129.845 	-2.90974e-30 	0 	
0.625 129.63 	0 	0 	
0.635 -541.828 	0 	0 	
0.645 -190372 	0 	0 	
0.655 21700.5 	0 	0 	
0.665 -754.987 	-4.30223e-30 	0 	
0.675 13.3653 	-3.40095e-31 	0 	
0.685 0.594673 	0 	0 	
0.695 0.0197636 	0 	0 	
0.705 0.00046845 	0 	0 	
0.715 7.03015e-06 	0 	0 	
0.725 6.38222e-08 	8.44311e-30 	0 	
0.735 3.02066e-10 	0 	0 	
0.745 5.32341e-13 	0 	0 	
0.755 -6.02055e-14 	0 	0 	
0.765 4.4362e-14 	-2.11078e-29 	0 	
0.775 -2.85184e-14 	0 	0 	
0.785 -9.5061e-15 	0 	0 	
0.795 5.0699e-14 	0 	0 	
0.805 -3.80242e-14 	0 	0 	
0.815 3.48557e-14 	1.19611e-29 	0 	
0.825 2.21811e-14 	5.45285e-30 	0 	
0.835 -1.58439e-14 	0 	0 	
0.845 -7.6049e-14 	0 	0 	
0.855 3.16838e-15 	0 	0 	
0.865 -8.55548e-14 	0 	0 	
0.875 9.50612e-15 	0 	0 	
0.885 -1.29917e-13 	0 	0 	
0.895 -8.55548e-14 	0 	0 	
0.905 2.535e-14 	0 	0 	
0.915 4.11929e-14 	0 	0 	
0.925 4.75303e-14 	0 	0 	
0.935 5.70365e-14 	0 	0 	
0.945 1.10905e-13 	0 	0 	
0.955 2.21813e-14 	0 	0 	
0.965 4.75306e-14 	0 	0 	
0.975 -3.48554e-14 	0 	0 	
0.985 -8.55551e-14 	0 	0 	
0.995 2.535e-14 	0 	0 	
