0.005 4.90141e-14 	0 	0 	
0.015 8.52335e-14 	0 	0 	
0.025 1.11685e-13 	0 	0 	
0.035 1.38137e-13 	0 	0 	
0.045 1.52832e-13 	0 	0 	
0.055 1.20503e-13 	0 	0 	
0.065 4.99644e-14 	0 	0 	
0.075 -2.05736e-14 	0 	0 	
0.085 -7.05381e-14 	0 	0 	
0.095 -9.69899e-14 	0 	0 	
0.105 -1.26381e-13 	0 	0 	
0.115 -1.49893e-13 	0 	0 	
0.125 -1.67528e-13 	0 	0 	
0.135 -2.17492e-13 	0 	0 	
0.145 -2.64518e-13 	-1.79468e-30 	0 	
0.155 -2.64518e-13 	1.63152e-30 	0 	
0.165 -2.32188e-13 	0 	0 	
0.175 -1.76345e-13 	0 	0 	
0.185 -9.699e-14 	0 	0 	
0.195 -5.87815e-15 	0 	0 	
0.205 4.99645e-14 	0 	0 	
0.215 5.58427e-14 	0 	0 	
0.225 8.22944e-14 	1.63152e-31 	0 	
0.235 1.11685e-13 	9.13651e-30 	0 	
0.245 9.11116e-14 	6.52609e-31 	0 	
0.255 7.05381e-14 	0 	0 	
0.265 6.7599e-14 	0 	0 	
0.275 5.58427e-14 	0 	0 	
0.285 5.29036e-14 	0 	0 	
0.295 7.05381e-14 	0 	0 	
0.305 9.40507e-14 	0 	0 	
0.315 1.05807e-13 	0 	0 	
0.325 9.40507e-14 	0 	0 	
0.335 5.58427e-14 	0 	0 	
0.345 -1.46954e-14 	0 	0 	
0.355 -9.11116e-14 	0 	0 	
0.365 -1.2638e-13 	0 	0 	
0.375 0.334795 	0 	0 	
0.385 3.84566 	0 	0 	
0.395 14.3285 	0 	0 	
0.405 31.1416 	0 	0 	
0.415 50.8971 	0 	0 	
0.425 71.3803 	0 	0 	
0.435 91.0092 	0 	0 	
0.445 107.883 	0 	0 	
0.455 120.145 	0 	0 	
0.465 127.089 	0 	0 	
0.475 129.604 	0 	0 	
0.485 129.798 	0 	0 	
0.495 129.683 	0 	0 	
0.505 129.983 	0 	0 	
0.515 130.489 	0 	0 	
0.525 130.778 	0 	0 	
0.535 130.67 	0 	0 	
0.545 130.261 	0 	0 	
0.555 129.722 	0 	0 	
0.565 129.335 	0 	0 	
0.575 129.343 	-2.71414e-30 	0 	
0.585 129.696 	-1.86289e-30 	0 	
0.595 129.929 	0 	0 	
0.605 128.79 	0 	0 	
0.615 120.779 	0 	0 	
0.625 94.1845 	0 	0 	
0.635 49.7662 	0 	0 	
0.645 13.4057 	0 	0 	
0.655 0.869455 	0 	0 	
0.665 -1.10216e-14 	0 	0 	
0.675 -1.09053e-25 	0 	0 	
0.685 2.86561e-14 	0 	0 	
0.695 6.17208e-14 	0 	0 	
0.705 5.51079e-14 	0 	0 	
0.715 2.64518e-14 	0 	0 	
0.725 3.96776e-14 	0 	0 	
0.735 7.27424e-14 	0 	0 	
0.745 7.05381e-14 	0 	0 	
0.755 4.40863e-14 	0 	0 	
0.765 3.08604e-14 	0 	0 	
0.775 3.30647e-14 	0 	0 	
0.785 2.86561e-14 	0 	0 	
0.795 2.20431e-14 	0 	0 	
0.805 3.5269e-14 	0 	0 	
0.815 4.84949e-14 	-7.58658e-30 	0 	
0.825 2.64518e-14 	0 	0 	
0.835 -1.32259e-14 	0 	0 	
0.845 -3.30647e-14 	0 	0 	
0.855 -3.96776e-14 	0 	0 	
0.865 -4.40863e-14 	0 	0 	
0.875 -5.73121e-14 	0 	0 	
0.885 -7.71509e-14 	0 	0 	
0.895 -7.05381e-14 	0 	0 	
0.905 -4.62906e-14 	0 	0 	
0.915 -3.30647e-14 	0 	0 	
0.925 -3.08604e-14 	0 	0 	
0.935 -1.32259e-14 	0 	0 	
0.945 2.86561e-14 	0 	0 	
0.955 6.61294e-14 	0 	0 	
0.965 9.0377e-14 	0 	0 	
0.975 1.05807e-13 	0 	0 	
0.985 9.91942e-14 	0 	0 	
0.995 6.7281e-14 	0 	0 	
