0.005 1.22736e-13 	0 	0 	
0.015 -6.81858e-15 	0 	0 	
0.025 3.40934e-14 	0 	0 	
0.035 8.18243e-14 	0 	0 	
0.045 -7.15963e-14 	0 	0 	
0.055 5.04871e-29 	0 	0 	
0.065 7.50056e-14 	0 	0 	
0.075 -1.7047e-14 	0 	0 	
0.085 -6.13682e-14 	0 	0 	
0.095 6.13683e-14 	0 	0 	
0.105 2.35245e-13 	0 	0 	
0.115 3.40934e-14 	0 	0 	
0.125 -1.70466e-14 	0 	0 	
0.135 3.40928e-15 	0 	0 	
0.145 2.38655e-14 	0 	0 	
0.155 -1.63648e-13 	0 	0 	
0.165 -2.38651e-14 	0 	0 	
0.175 1.50007e-19 	0 	0 	
0.185 -9.54615e-14 	-3.54856e-30 	0 	
0.195 -9.88707e-14 	0 	0 	
0.205 7.15964e-14 	0 	0 	
0.215 1.70467e-13 	0 	0 	
0.225 5.11399e-14 	0 	0 	
0.235 5.7959e-14 	0 	0 	
0.245 6.47771e-14 	0 	0 	
0.255 1.90923e-13 	-3.78513e-30 	0 	
0.265 -3.40948e-15 	-1.89256e-30 	0 	
0.275 -6.81868e-14 	0 	0 	
0.285 1.70464e-14 	0 	0 	
0.295 2.04562e-14 	0 	0 	
0.305 4.77306e-14 	0 	0 	
0.315 -7.50055e-14 	0 	0 	
0.325 -8.52335e-14 	0 	0 	
0.335 1.50011e-13 	0 	0 	
0.345 9.2052e-14 	0 	0 	
0.355 -2.38656e-14 	-1.5377e-30 	0 	
0.365 -9.54618e-14 	0 	0 	
0.375 -6.8187e-14 	0 	0 	
0.385 2.38654e-14 	0 	0 	
0.395 -6.13683e-14 	0 	0 	
0.405 7.84146e-14 	0 	0 	
0.415 1.15698e-05 	0 	0 	
0.425 0.00655971 	0 	0 	
0.435 0.334784 	0 	0 	
0.445 4.09922 	0 	0 	
0.455 19.1815 	0 	0 	
0.465 49.3559 	0 	0 	
0.475 89.0896 	0 	0 	
0.485 122.324 	0 	0 	
0.495 130.166 	8.94023e-31 	0 	
0.505 130.181 	0 	0 	
0.515 130.136 	0 	0 	
0.525 130.084 	0 	0 	
0.535 129.652 	0 	0 	
0.545 122.169 	0 	0 	
0.555 75.2046 	0 	0 	
0.565 6.81465 	0 	0 	
0.575 0.0717197 	0 	0 	
0.585 7.7046e-05 	0 	0 	
0.595 -2.557e-14 	0 	0 	
0.605 -1.09951e-13 	0 	0 	
0.615 -1.27853e-14 	0 	0 	
0.625 -2.50004e-19 	0 	0 	
0.635 -7.671e-14 	0 	0 	
0.645 -9.7166e-14 	0 	0 	
0.655 1.66206e-13 	0 	0 	
0.665 8.9495e-14 	0 	0 	
0.675 -1.2785e-13 	0 	0 	
0.685 -1.07395e-13 	0 	0 	
0.695 7.1596e-14 	0 	0 	
0.705 -8.6938e-14 	0 	0 	
0.715 -1.35521e-13 	0 	0 	
0.725 -2.557e-14 	0 	0 	
0.735 -1.5342e-14 	0 	0 	
0.745 2.557e-14 	0 	0 	
0.755 1.7899e-13 	0 	0 	
0.765 1.17622e-13 	0 	0 	
0.775 -1.2785e-14 	0 	0 	
0.785 1.02284e-14 	0 	0 	
0.795 -1.30407e-13 	0 	0 	
0.805 4.85829e-14 	0 	0 	
0.815 -6.9039e-14 	0 	0 	
0.825 -3.8355e-14 	0 	0 	
0.835 3.5798e-14 	0 	0 	
0.845 -1.84104e-13 	0 	0 	
0.855 -6.3925e-14 	0 	0 	
0.865 4.6026e-14 	0 	0 	
0.875 -3.83552e-14 	0 	0 	
0.885 5.3697e-14 	0 	0 	
0.895 2.55705e-14 	0 	0 	
0.905 -7.67101e-15 	0 	0 	
0.915 -2.8127e-14 	0 	0 	
0.925 7.67101e-14 	0 	0 	
0.935 4.0912e-14 	0 	0 	
0.945 7.92675e-14 	0 	0 	
0.955 -8.43814e-14 	0 	0 	
0.965 -2.557e-14 	0 	0 	
0.975 -7.67105e-14 	0 	0 	
0.985 2.557e-14 	0 	0 	
0.995 6.9039e-14 	0 	0 	
