0.005 8.0825e-15 	0 	0 	
0.015 -3.233e-14 	0 	0 	
0.025 -3.23301e-14 	0 	0 	
0.035 5.65775e-14 	0 	0 	
0.045 -1.6165e-14 	0 	0 	
0.055 -9.699e-14 	0 	0 	
0.065 8.89071e-14 	0 	0 	
0.075 -1.61649e-14 	0 	0 	
0.085 8.08254e-15 	0 	0 	
0.095 -1.37402e-13 	0 	0 	
0.105 -9.699e-14 	0 	0 	
0.115 -6.466e-14 	0 	0 	
0.125 3.23299e-14 	0 	0 	
0.135 -5.65776e-14 	0 	0 	
0.145 -8.0825e-14 	0 	0 	
0.155 2.42475e-14 	0 	0 	
0.165 4.84946e-14 	0 	0 	
0.175 1.05072e-13 	0 	0 	
0.185 -1.07186e-20 	0 	0 	
0.195 3.233e-14 	0 	0 	
0.205 2.42474e-14 	0 	0 	
0.215 2.42475e-14 	0 	0 	
0.225 4.04125e-14 	0 	0 	
0.235 -6.46596e-14 	0 	0 	
0.245 -5.65775e-14 	0 	0 	
0.255 -4.04125e-14 	0 	0 	
0.265 -8.08245e-15 	0 	0 	
0.275 3.89271e-19 	0 	0 	
0.285 -2.42475e-14 	0 	0 	
0.295 4.8495e-14 	0 	0 	
0.305 2.42475e-14 	0 	0 	
0.315 -8.08247e-14 	6.73002e-31 	0 	
0.325 -8.89074e-14 	0 	0 	
0.335 -7.27425e-14 	-6.73002e-31 	0 	
0.345 -2.42475e-14 	0 	0 	
0.355 4.84949e-14 	-3.36501e-31 	0 	
0.365 8.08256e-15 	1.346e-30 	0 	
0.375 -4.04125e-14 	0 	0 	
0.385 -1.21237e-13 	0 	0 	
0.395 -8.08262e-15 	0 	0 	
0.405 -6.466e-14 	0 	0 	
0.415 -2.42475e-14 	0 	0 	
0.425 -8.0825e-14 	0 	0 	
0.435 -8.0825e-14 	0 	0 	
0.445 -7.27425e-14 	0 	0 	
0.455 7.27425e-14 	0 	0 	
0.465 8.0825e-15 	-6.73002e-31 	0 	
0.475 -8.08256e-15 	0 	0 	
0.485 8.36804 	0 	0 	
0.495 79.7555 	0 	0 	
0.505 125.508 	0 	0 	
0.515 48.5755 	0 	0 	
0.525 -5.45568e-14 	0 	0 	
0.535 -7.27425e-14 	0 	0 	
0.545 4.8495e-14 	0 	0 	
0.555 -9.699e-14 	0 	0 	
0.565 -7.27425e-14 	0 	0 	
0.575 -6.06186e-15 	0 	0 	
0.585 -5.45569e-14 	0 	0 	
0.595 -3.63713e-14 	0 	0 	
0.605 3.63712e-14 	0 	0 	
0.615 3.03093e-14 	0 	0 	
0.625 -7.88042e-14 	0 	0 	
0.635 1.81856e-14 	0 	0 	
0.645 -1.15176e-13 	0 	0 	
0.655 -5.45569e-14 	0 	0 	
0.665 5.45569e-14 	0 	0 	
0.675 7.27426e-14 	0 	0 	
0.685 -6.66806e-14 	0 	0 	
0.695 6.06188e-14 	0 	0 	
0.705 8.48663e-14 	0 	0 	
0.715 -4.84949e-14 	0 	0 	
0.725 -5.4557e-14 	0 	0 	
0.735 -7.88039e-14 	0 	0 	
0.745 8.48663e-14 	0 	0 	
0.755 -7.27425e-14 	0 	0 	
0.765 -3.63712e-14 	0 	0 	
0.775 -2.42474e-14 	0 	0 	
0.785 -6.06188e-14 	0 	0 	
0.795 -1.15175e-13 	0 	0 	
0.805 2.42475e-14 	0 	0 	
0.815 -3.03095e-14 	0 	0 	
0.825 -4.24331e-14 	0 	0 	
0.835 -5.45569e-14 	0 	0 	
0.845 -1.21237e-14 	0 	0 	
0.855 -1.21237e-14 	0 	0 	
0.865 5.4557e-14 	0 	0 	
0.875 -1.09113e-13 	0 	0 	
0.885 4.24332e-14 	0 	0 	
0.895 7.88043e-14 	0 	0 	
0.905 7.88042e-14 	0 	0 	
0.915 -1.09114e-13 	0 	0 	
0.925 -3.63712e-14 	0 	0 	
0.935 -5.4557e-14 	0 	0 	
0.945 -4.84949e-14 	0 	0 	
0.955 1.03052e-13 	0 	0 	
0.965 3.03094e-14 	0 	0 	
0.975 6.06175e-15 	0 	0 	
0.985 -3.63712e-14 	0 	0 	
0.995 -1.03052e-13 	0 	0 	
