0.005 5.1934e-14 	0 	0 	
0.015 -4.02067e-14 	0 	0 	
0.025 1.00517e-13 	0 	0 	
0.035 6.7011e-14 	0 	0 	
0.045 5.86348e-14 	0 	0 	
0.055 1.89307e-13 	0 	0 	
0.065 3.35054e-14 	0 	0 	
0.075 4.1882e-14 	0 	0 	
0.085 -4.1882e-14 	0 	0 	
0.095 7.53878e-14 	0 	0 	
0.105 -7.53873e-14 	0 	0 	
0.115 2.17789e-14 	0 	0 	
0.125 3.35055e-14 	0 	0 	
0.135 1.67528e-15 	0 	0 	
0.145 4.02064e-14 	0 	0 	
0.155 -1.42399e-13 	0 	0 	
0.165 -6.70112e-15 	0 	0 	
0.175 1.17269e-13 	0 	0 	
0.185 3.35056e-15 	0 	0 	
0.195 3.3506e-14 	0 	0 	
0.205 6.19854e-14 	0 	0 	
0.215 -2.84797e-14 	0 	0 	
0.225 -4.18819e-14 	0 	0 	
0.235 3.51807e-14 	0 	0 	
0.245 -4.35571e-14 	0 	0 	
0.255 -5.36091e-14 	0 	0 	
0.265 1.2062e-13 	0 	0 	
0.275 -3.35055e-14 	0 	0 	
0.285 -1.50775e-14 	0 	0 	
0.295 1.08893e-13 	0 	0 	
0.305 -2.84798e-14 	0 	0 	
0.315 6.70123e-15 	0 	0 	
0.325 -5.86351e-14 	0 	0 	
0.335 -9.38158e-14 	0 	0 	
0.345 7.7063e-14 	0 	0 	
0.355 -8.37638e-14 	0 	0 	
0.365 1.15595e-13 	0 	0 	
0.375 2.00397e-08 	0 	0 	
0.385 1.74194e-05 	0 	0 	
0.395 0.00202999 	0 	0 	
0.405 0.0702965 	0 	0 	
0.415 0.927671 	0 	0 	
0.425 5.46389 	0 	0 	
0.435 17.8284 	0 	0 	
0.445 39.2792 	0 	0 	
0.455 67.3631 	0 	0 	
0.465 97.6231 	1.27138e-30 	0 	
0.475 121.597 	0 	0 	
0.485 129.798 	0 	0 	
0.495 130.203 	0 	0 	
0.505 130.167 	0 	0 	
0.515 130.138 	0 	0 	
0.525 130.114 	0 	0 	
0.535 130.091 	0 	0 	
0.545 130.059 	0 	0 	
0.555 129.787 	0 	0 	
0.565 127.572 	0 	0 	
0.575 107.163 	0 	0 	
0.585 37.0331 	0 	0 	
0.595 1.81806 	0 	0 	
0.605 0.0289902 	0 	0 	
0.615 0.000163295 	0 	0 	
0.625 1.34e-07 	0 	0 	
0.635 2.51292e-13 	0 	0 	
0.645 -1.25643e-15 	0 	0 	
0.655 9.67476e-14 	0 	0 	
0.665 -3.76939e-15 	0 	0 	
0.675 -1.88471e-14 	0 	0 	
0.685 -1.63339e-14 	0 	0 	
0.695 -1.98357e-25 	0 	0 	
0.705 -7.53878e-14 	0 	0 	
0.715 -6.2822e-15 	0 	0 	
0.725 -1.25647e-14 	0 	0 	
0.735 -1.00517e-14 	0 	0 	
0.745 8.54395e-14 	0 	0 	
0.755 1.16851e-13 	0 	0 	
0.765 -2.51293e-14 	0 	0 	
0.775 8.16698e-14 	0 	0 	
0.785 6.65925e-14 	0 	0 	
0.795 3.14116e-14 	0 	0 	
0.805 -6.40794e-14 	0 	0 	
0.815 -2.5129e-14 	0 	0 	
0.825 3.76937e-14 	0 	0 	
0.835 -2.38728e-14 	0 	0 	
0.845 -3.14114e-14 	0 	0 	
0.855 -1.00518e-14 	0 	0 	
0.865 -2.01037e-14 	0 	0 	
0.875 5.65405e-14 	0 	0 	
0.885 -5.52844e-14 	0 	0 	
0.895 -7.79007e-14 	0 	0 	
0.905 2.51293e-14 	0 	0 	
0.915 3.01552e-14 	0 	0 	
0.925 -9.42347e-14 	0 	0 	
0.935 -1.67109e-13 	0 	0 	
0.945 -1.00517e-13 	0 	0 	
0.955 2.38727e-14 	0 	0 	
0.965 2.26161e-14 	0 	0 	
0.975 2.51291e-14 	0 	0 	
0.985 -3.76952e-15 	0 	0 	
0.995 3.26682e-14 	0 	0 	
