0.005 2.35127e-14 	0 	0 	
0.015 -2.35127e-14 	0 	0 	
0.025 7.05383e-14 	0 	0 	
0.035 -2.35127e-14 	0 	0 	
0.045 7.05381e-14 	0 	0 	
0.055 1.16974e-24 	0 	0 	
0.065 9.4051e-14 	0 	0 	
0.075 7.05381e-14 	0 	0 	
0.085 2.35127e-14 	0 	0 	
0.095 9.40508e-14 	0 	0 	
0.105 -2.35127e-14 	0 	0 	
0.115 7.05381e-14 	0 	0 	
0.125 4.70255e-14 	0 	0 	
0.135 -5.85313e-25 	0 	0 	
0.145 9.40507e-14 	0 	0 	
0.155 -2.35127e-14 	0 	0 	
0.165 2.33999e-24 	0 	0 	
0.175 -4.70254e-14 	0 	0 	
0.185 -2.35127e-14 	0 	0 	
0.195 -2.3513e-14 	0 	0 	
0.205 -7.0538e-14 	7.83129e-30 	0 	
0.215 -2.33789e-24 	0 	0 	
0.225 -2.35127e-14 	0 	0 	
0.235 -2.35127e-14 	0 	0 	
0.245 -4.70254e-14 	0 	0 	
0.255 7.05383e-14 	0 	0 	
0.265 -1.17563e-13 	0 	0 	
0.275 -2.35127e-14 	0 	0 	
0.285 -1.17563e-13 	0 	0 	
0.295 -9.40508e-14 	0 	0 	
0.305 2.35127e-13 	0 	0 	
0.315 5.87817e-11 	0 	0 	
0.325 6.37551e-09 	0 	0 	
0.335 3.95376e-07 	0 	0 	
0.345 1.48871e-05 	0 	0 	
0.355 0.000354505 	0 	0 	
0.365 0.00548922 	0 	0 	
0.375 0.0563016 	0 	0 	
0.385 0.3877 	0 	0 	
0.395 1.82243 	0 	0 	
0.405 6.03986 	0 	0 	
0.415 14.8988 	0 	0 	
0.425 29.2216 	0 	0 	
0.435 48.4375 	0 	0 	
0.445 71.0202 	0 	0 	
0.455 94.6159 	0 	0 	
0.465 115.233 	0 	0 	
0.475 127.218 	0 	0 	
0.485 130.096 	0 	0 	
0.495 130.212 	0 	0 	
0.505 130.181 	-7.40155e-31 	0 	
0.515 130.155 	1.36496e-30 	0 	
0.525 130.133 	-1.57599e-30 	0 	
0.535 130.113 	-1.05113e-30 	0 	
0.545 130.093 	-9.90611e-31 	0 	
0.555 130.063 	0 	0 	
0.565 129.929 	0 	0 	
0.575 128.984 	1.86381e-30 	0 	
0.585 123.724 	1.71389e-30 	0 	
0.595 102.761 	1.08054e-30 	0 	
0.605 52.9603 	2.05391e-31 	0 	
0.615 10.7902 	0 	0 	
0.625 1.08174 	0 	0 	
0.635 0.0750353 	0 	0 	
0.645 0.00373184 	0 	0 	
0.655 0.000128095 	0 	0 	
0.665 2.89748e-06 	0 	0 	
0.675 4.09473e-08 	0 	0 	
0.685 3.37719e-10 	0 	0 	
0.695 1.4813e-12 	0 	0 	
0.705 5.29035e-14 	0 	0 	
0.715 -4.35418e-25 	0 	0 	
0.725 -7.0538e-14 	0 	0 	
0.735 -8.81725e-14 	0 	0 	
0.745 -3.5269e-14 	0 	0 	
0.755 -8.74838e-31 	-2.93674e-30 	0 	
0.765 -3.52689e-14 	0 	0 	
0.775 3.52689e-14 	0 	0 	
0.785 -1.74168e-24 	0 	0 	
0.795 -5.29035e-14 	-3.0591e-30 	0 	
0.805 1.76345e-14 	-3.0591e-30 	0 	
0.815 1.76345e-14 	0 	0 	
0.825 -1.76346e-14 	0 	0 	
0.835 1.30391e-24 	0 	0 	
0.845 3.5269e-14 	0 	0 	
0.855 1.76345e-14 	0 	0 	
0.865 3.5269e-14 	0 	0 	
0.875 3.5269e-14 	0 	0 	
0.885 -1.76344e-14 	0 	0 	
0.895 -1.76345e-14 	0 	0 	
0.905 3.5269e-14 	0 	0 	
0.915 1.76345e-14 	0 	0 	
0.925 -1.30391e-24 	0 	0 	
0.935 1.76345e-14 	0 	0 	
0.945 -1.76345e-14 	0 	0 	
0.955 3.5269e-14 	0 	0 	
0.965 -1.76345e-14 	0 	0 	
0.975 -8.81725e-14 	0 	0 	
0.985 1.76345e-14 	0 	0 	
0.995 7.0538e-14 	0 	0 	
