0.005 7.05381e-14 	0 	0 	
0.015 -2.35126e-14 	0 	0 	
0.025 9.40508e-14 	0 	0 	
0.035 9.40507e-14 	0 	0 	
0.045 2.35127e-14 	0 	0 	
0.055 1.17564e-13 	0 	0 	
0.065 4.70256e-14 	0 	0 	
0.075 2.35126e-14 	0 	0 	
0.085 7.05381e-14 	0 	0 	
0.095 -2.35127e-14 	0 	0 	
0.105 5.8506e-25 	0 	0 	
0.115 1.17564e-13 	0 	0 	
0.125 4.70256e-14 	0 	0 	
0.135 2.35126e-14 	0 	0 	
0.145 -7.0538e-14 	0 	0 	
0.155 4.70254e-14 	0 	0 	
0.165 4.70254e-14 	0 	0 	
0.175 -4.70253e-14 	0 	0 	
0.185 2.35127e-14 	0 	0 	
0.195 -2.35126e-14 	0 	0 	
0.205 -2.35127e-14 	1.14206e-29 	0 	
0.215 -4.70253e-14 	0 	0 	
0.225 -4.70254e-14 	0 	0 	
0.235 -4.70253e-14 	0 	0 	
0.245 3.76203e-13 	0 	0 	
0.255 3.28472e-11 	0 	0 	
0.265 1.5323e-09 	0 	0 	
0.275 5.11271e-08 	0 	0 	
0.285 1.24407e-06 	0 	0 	
0.295 2.23746e-05 	0 	0 	
0.305 0.000300409 	0 	0 	
0.315 0.00303258 	0 	0 	
0.325 0.0231284 	0 	0 	
0.335 0.133721 	0 	0 	
0.345 0.588667 	0 	0 	
0.355 1.99278 	0 	0 	
0.365 5.29685 	0 	0 	
0.375 11.4253 	0 	0 	
0.385 20.8113 	0 	0 	
0.395 33.2771 	0 	0 	
0.405 48.2409 	0 	0 	
0.415 64.9435 	0 	0 	
0.425 82.5012 	0 	0 	
0.435 99.7335 	0 	0 	
0.445 114.783 	0 	0 	
0.455 125.079 	0 	0 	
0.465 129.396 	0 	0 	
0.475 130.182 	0 	0 	
0.485 130.202 	0 	0 	
0.495 130.179 	0 	0 	
0.505 130.16 	-4.92784e-31 	0 	
0.515 130.144 	8.63078e-31 	0 	
0.525 130.131 	-1.48723e-30 	0 	
0.535 130.119 	-1.1562e-30 	0 	
0.545 130.108 	-1.27369e-30 	0 	
0.555 130.098 	0 	0 	
0.565 130.088 	0 	0 	
0.575 130.077 	2.87055e-30 	0 	
0.585 130.065 	3.04288e-30 	0 	
0.595 130.043 	3.04208e-30 	0 	
0.605 129.949 	3.54876e-30 	0 	
0.615 129.431 	-3.38289e-30 	0 	
0.625 126.902 	0 	0 	
0.635 116.789 	0 	0 	
0.645 86.1598 	0 	0 	
0.655 34.8712 	0 	0 	
0.665 6.19491 	0 	0 	
0.675 0.702123 	0 	0 	
0.685 0.0639152 	0 	0 	
0.695 0.00475133 	0 	0 	
0.705 0.00028212 	0 	0 	
0.715 1.30721e-05 	0 	0 	
0.725 4.62507e-07 	0 	0 	
0.735 1.22277e-08 	0 	0 	
0.745 2.36003e-10 	0 	0 	
0.755 3.22712e-12 	-4.52747e-30 	0 	
0.765 -8.81725e-14 	0 	0 	
0.775 -3.5269e-14 	0 	0 	
0.785 -5.29035e-14 	0 	0 	
0.795 -5.29035e-14 	-4.64984e-30 	0 	
0.805 8.81725e-14 	-4.89456e-30 	0 	
0.815 3.5269e-14 	0 	0 	
0.825 4.34639e-25 	0 	0 	
0.835 -8.81725e-14 	0 	0 	
0.845 -3.5269e-14 	0 	0 	
0.855 7.0538e-14 	0 	0 	
0.865 1.23442e-13 	0 	0 	
0.875 3.5269e-14 	0 	0 	
0.885 5.29036e-14 	0 	0 	
0.895 1.5871e-13 	0 	0 	
0.905 5.29035e-14 	0 	0 	
0.915 -1.76345e-14 	0 	0 	
0.925 1.76345e-14 	0 	0 	
0.935 -3.5269e-14 	0 	0 	
0.945 -5.29034e-14 	0 	0 	
0.955 -1.76346e-14 	0 	0 	
0.965 -3.5269e-14 	0 	0 	
0.975 3.5269e-14 	0 	0 	
0.985 -7.0538e-14 	0 	0 	
0.995 -1.76345e-14 	0 	0 	
