0.005 5.19531e-14 	0 	0 	
0.015 9.40506e-14 	0 	0 	
0.025 1.14624e-13 	0 	0 	
0.035 1.17563e-13 	0 	0 	
0.045 1.20502e-13 	0 	0 	
0.055 1.02868e-13 	0 	0 	
0.065 5.29036e-14 	0 	0 	
0.075 -1.17563e-14 	0 	0 	
0.085 -7.93552e-14 	0 	0 	
0.095 -1.2638e-13 	0 	0 	
0.105 -1.41076e-13 	0 	0 	
0.115 -1.35198e-13 	0 	0 	
0.125 -1.49893e-13 	0 	0 	
0.135 -1.9398e-13 	0 	0 	
0.145 -2.2631e-13 	-3.26305e-31 	0 	
0.155 -2.43944e-13 	0 	0 	
0.165 -2.41005e-13 	0 	0 	
0.175 -1.85163e-13 	0 	0 	
0.185 -9.699e-14 	0 	0 	
0.195 -1.46954e-14 	0 	0 	
0.205 2.35127e-14 	0 	0 	
0.215 2.05736e-14 	0 	0 	
0.225 3.233e-14 	0 	0 	
0.235 4.70254e-14 	6.52609e-31 	0 	
0.245 6.46598e-14 	0 	0 	
0.255 1.02868e-13 	0 	0 	
0.265 1.23441e-13 	0 	0 	
0.275 1.17563e-13 	0 	0 	
0.285 1.05807e-13 	0 	0 	
0.295 8.52335e-14 	0 	0 	
0.305 6.46599e-14 	0 	0 	
0.315 5.58427e-14 	0 	0 	
0.325 5.87817e-14 	0 	0 	
0.335 6.17208e-14 	0 	0 	
0.345 5.8783e-15 	0 	0 	
0.355 -9.11113e-14 	0 	0 	
0.365 -1.32259e-13 	0 	0 	
0.375 0.545927 	0 	0 	
0.385 4.61993 	0 	0 	
0.395 15.4478 	0 	0 	
0.405 31.8876 	0 	0 	
0.415 50.7946 	0 	0 	
0.425 70.2964 	0 	0 	
0.435 89.1385 	0 	0 	
0.445 105.99 	0 	0 	
0.455 118.956 	0 	0 	
0.465 126.894 	0 	0 	
0.475 130.463 	0 	0 	
0.485 131.04 	0 	0 	
0.495 130.38 	0 	0 	
0.505 129.804 	0 	0 	
0.515 129.721 	0 	0 	
0.525 130.059 	0 	0 	
0.535 130.399 	0 	0 	
0.545 130.414 	0 	0 	
0.555 130.115 	0 	0 	
0.565 129.792 	0 	0 	
0.575 129.766 	-1.69605e-30 	0 	
0.585 130.029 	-5.0844e-31 	0 	
0.595 130.163 	0 	0 	
0.605 128.978 	0 	0 	
0.615 120.844 	0 	0 	
0.625 93.8725 	0 	0 	
0.635 49.1973 	0 	0 	
0.645 13.0511 	0 	0 	
0.655 0.797443 	0 	0 	
0.665 -6.17208e-14 	0 	0 	
0.675 -5.06992e-14 	0 	0 	
0.685 1.98388e-14 	0 	0 	
0.695 6.39251e-14 	0 	0 	
0.705 4.1882e-14 	0 	0 	
0.715 2.64518e-14 	0 	0 	
0.725 5.95165e-14 	0 	0 	
0.735 8.15597e-14 	0 	0 	
0.745 7.27424e-14 	0 	0 	
0.755 5.06992e-14 	0 	0 	
0.765 3.74734e-14 	0 	0 	
0.775 3.30647e-14 	0 	0 	
0.785 -4.40862e-15 	0 	0 	
0.795 -4.40863e-14 	0 	0 	
0.805 -3.96777e-14 	0 	0 	
0.815 -1.32259e-14 	-4.89455e-31 	0 	
0.825 6.61295e-15 	0 	0 	
0.835 2.42475e-14 	0 	0 	
0.845 4.1882e-14 	0 	0 	
0.855 4.62906e-14 	0 	0 	
0.865 3.30647e-14 	0 	0 	
0.875 -1.99997e-20 	0 	0 	
0.885 -4.62906e-14 	0 	0 	
0.895 -7.05381e-14 	0 	0 	
0.905 -4.1882e-14 	0 	0 	
0.915 6.61295e-15 	0 	0 	
0.925 2.42475e-14 	0 	0 	
0.935 2.20432e-14 	0 	0 	
0.945 2.42475e-14 	0 	0 	
0.955 2.86561e-14 	0 	0 	
0.965 2.64518e-14 	0 	0 	
0.975 3.74733e-14 	0 	0 	
0.985 5.73122e-14 	0 	0 	
0.995 3.8592e-14 	0 	0 	
