0.005 221.222 305240
0.015 267.459 294083
0.025 210.237 289919
0.035 211.006 297242
0.045 272.438 302214
0.055 170.589 276613
0.065 560.897 929310
0.075 170.705 258806
0.085 212.026 239228
0.095 136.639 160958
0.105 174.705 209998
0.115 174.665 329464
0.125 101.863 118875
0.135 214.556 228182
0.145 226.012 228825
0.155 233.019 292440
0.165 60.3411 79565.7
0.175 232.541 341595
0.185 457.022 852312
0.195 237.985 370491
0.205 235.393 326217
0.215 304.28 555071
0.225 233.828 335677
0.235 10.8805 12667.9
0.245 563.246 829465
0.255 166.948 285107
0.265 174.13 223761
0.275 241.11 334661
0.285 254.78 284532
0.295 90.013 115994
0.305 117.352 135805
0.315 219.084 268605
0.325 115.129 134067
0.335 125.449 137410
0.345 105.812 134185
0.355 80.7584 124846
0.365 119.436 182680
0.375 221.654 281567
0.385 229.9 285429
0.395 238.278 313647
0.405 200.686 264756
0.415 164.903 252702
0.425 0.001 2876.99
0.435 0.001 2876.99
0.445 3762.38 3.76417e+06
0.455 0.001 2876.99
0.465 0.001 2876.99
0.475 0.001 2876.99
0.485 0.001 2876.99
0.495 0.001 2520.93
0.505 0.001 2876.99
0.515 0.001 2876.99
0.525 0.001 2876.99
0.535 0.001 2876.99
0.545 0.001 2876.99
0.555 0.001 2876.99
0.565 0.001 2876.99
0.575 0.001 2876.99
0.585 233.014 123806
0.595 277.16 108278
0.605 410.833 302941
0.615 265.295 93996.1
0.625 265.827 109542
0.635 219.536 93782.8
0.645 198.616 124491
0.655 208.528 80651.2
0.665 170.004 62820.3
0.675 431.19 305329
0.685 272.641 107940
0.695 169.278 96542
0.705 262.238 89294.8
0.715 278.27 127477
0.725 296.847 202866
0.735 392.797 350128
0.745 170.776 96467.4
0.755 246.705 117472
0.765 251.749 92878.3
0.775 244.162 161224
0.785 407.747 321366
0.795 389.71 367436
0.805 385.912 399244
0.815 253.699 92691
0.825 983.52 432152
0.835 238.062 103317
0.845 217.039 102356
0.855 235.24 302758
0.865 393.3 300532
0.875 235.834 85873.3
0.885 231.048 134955
0.895 254.159 100048
0.905 404.035 295613
0.915 235.282 163693
0.925 350.324 360487
0.935 524.322 304030
0.945 241.703 162771
0.955 220.69 100085
0.965 245.146 93132.4
0.975 167.336 94507.1
0.985 264.11 100284
0.995 238.791 147452
