0.005 -2.93907e-14 	0 	0 	
0.015 1.46953e-14 	0 	0 	
0.025 -4.40865e-14 	0 	0 	
0.035 -1.82776e-24 	0 	0 	
0.045 -4.40861e-14 	0 	0 	
0.055 -2.93908e-14 	0 	0 	
0.065 7.34775e-14 	0 	0 	
0.075 0 	0 	0 	
0.085 -4.40863e-14 	0 	0 	
0.095 -1.02868e-13 	0 	0 	
0.105 -1.17564e-13 	0 	0 	
0.115 7.34773e-14 	0 	0 	
0.125 7.34769e-14 	0 	0 	
0.135 5.87817e-14 	0 	0 	
0.145 1.6165e-13 	0 	0 	
0.155 1.6165e-13 	0 	0 	
0.165 2.64518e-13 	0 	0 	
0.175 1.91041e-13 	0 	0 	
0.185 2.35127e-13 	0 	0 	
0.195 1.46954e-14 	0 	0 	
0.205 -1.46954e-14 	0 	0 	
0.215 -7.34772e-14 	0 	0 	
0.225 -1.17564e-13 	0 	0 	
0.235 -8.81723e-14 	0 	0 	
0.245 -1.76345e-13 	0 	0 	
0.255 -8.81726e-14 	0 	0 	
0.265 -2.93908e-13 	0 	0 	
0.275 -1.32259e-13 	0 	0 	
0.285 -1.91041e-13 	0 	0 	
0.295 2.93908e-14 	0 	0 	
0.305 5.87815e-14 	0 	0 	
0.315 -2.50002e-19 	0 	0 	
0.325 1.32259e-13 	0 	0 	
0.335 2.79213e-13 	0 	0 	
0.345 3.23652e-10 	0 	0 	
0.355 1.29201e-07 	0 	0 	
0.365 1.61292e-05 	0 	0 	
0.375 0.000821992 	0 	0 	
0.385 0.0197613 	0 	0 	
0.395 0.244463 	0 	0 	
0.405 1.66176 	0 	0 	
0.415 6.72222 	0 	0 	
0.425 18.0699 	0 	0 	
0.435 36.3115 	0 	0 	
0.445 59.9377 	0 	0 	
0.455 86.257 	0 	0 	
0.465 110.88 	0 	0 	
0.475 126.368 	0 	0 	
0.485 130.087 	0 	0 	
0.495 130.201 	0 	0 	
0.505 130.169 	0 	0 	
0.515 130.143 	0 	0 	
0.525 130.122 	0 	0 	
0.535 130.102 	0 	0 	
0.545 130.082 	0 	0 	
0.555 130.044 	0 	0 	
0.565 129.754 	0 	0 	
0.575 127.223 	0 	0 	
0.585 112.03 	0 	0 	
0.595 59.5278 	0 	0 	
0.605 8.31895 	0 	0 	
0.615 0.398136 	0 	0 	
0.625 0.0107767 	0 	0 	
0.635 0.000154466 	0 	0 	
0.645 9.72687e-07 	0 	0 	
0.655 1.99942e-09 	0 	0 	
0.665 8.26619e-13 	0 	0 	
0.675 3.30647e-14 	0 	0 	
0.685 4.40863e-14 	0 	0 	
0.695 3.30648e-14 	0 	0 	
0.705 -3.30647e-14 	0 	0 	
0.715 -4.40863e-14 	0 	0 	
0.725 -7.7151e-14 	0 	0 	
0.735 -9.9194e-14 	0 	0 	
0.745 -1.4328e-13 	0 	0 	
0.755 -3.30647e-14 	0 	0 	
0.765 -1.21237e-13 	0 	0 	
0.775 -1.87366e-13 	0 	0 	
0.785 -8.81726e-14 	0 	0 	
0.795 -8.81725e-14 	0 	0 	
0.805 2.20431e-14 	0 	0 	
0.815 -1.10216e-14 	0 	0 	
0.825 -6.61292e-14 	0 	0 	
0.835 3.30648e-14 	0 	0 	
0.845 4.40862e-14 	0 	0 	
0.855 1.32259e-13 	0 	0 	
0.865 7.7151e-14 	0 	0 	
0.875 -5.51079e-14 	0 	0 	
0.885 -3.30647e-14 	0 	0 	
0.895 2.20432e-14 	0 	0 	
0.905 4.40863e-14 	0 	0 	
0.915 -4.40863e-14 	0 	0 	
0.925 -2.20433e-14 	0 	0 	
0.935 3.30648e-14 	0 	0 	
0.945 1.10216e-14 	0 	0 	
0.955 1.21237e-13 	0 	0 	
0.965 1.21237e-13 	0 	0 	
0.975 1.4328e-13 	0 	0 	
0.985 -2.20431e-14 	0 	0 	
0.995 -1.3558e-24 	0 	0 	
