0.005 -1.578e-13 	0 	0 	
0.015 2.94788e-14 	0 	0 	
0.025 -4.33516e-14 	0 	0 	
0.035 -9.36394e-14 	0 	0 	
0.045 -3.46818e-15 	0 	0 	
0.055 6.46059e-26 	0 	0 	
0.065 5.72242e-14 	0 	0 	
0.075 1.73407e-14 	0 	0 	
0.085 1.76419e-25 	1.05886e-29 	0 	
0.095 -3.12134e-14 	0 	0 	
0.105 -3.46813e-14 	0 	0 	
0.115 -1.57799e-13 	-5.29428e-30 	0 	
0.125 2.6011e-14 	5.05365e-30 	0 	
0.135 -4.68195e-14 	0 	0 	
0.145 1.26586e-13 	0 	0 	
0.155 8.84373e-14 	0 	0 	
0.165 6.41604e-14 	0 	0 	
0.175 8.6705e-15 	0 	0 	
0.185 1.17916e-13 	0 	0 	
0.195 -1.33523e-13 	0 	0 	
0.205 8.1628e-29 	0 	0 	
0.215 3.98832e-14 	0 	0 	
0.225 -1.73406e-14 	0 	0 	
0.235 2.25427e-14 	0 	0 	
0.245 -4.50856e-14 	0 	0 	
0.255 -6.24261e-14 	0 	0 	
0.265 -4.50856e-14 	0 	0 	
0.275 -1.73406e-14 	0 	0 	
0.285 5.20218e-15 	0 	0 	
0.295 -2.9479e-14 	0 	0 	
0.305 1.59534e-13 	0 	0 	
0.315 2.42769e-14 	0 	0 	
0.325 1.04044e-13 	0 	0 	
0.335 3.46813e-14 	0 	0 	
0.345 6.93614e-15 	0 	0 	
0.355 -1.04044e-13 	0 	0 	
0.365 5.54898e-14 	0 	0 	
0.375 -9.53734e-14 	0 	0 	
0.385 2.17106e-07 	0 	0 	
0.395 0.000140428 	0 	0 	
0.405 0.012831 	0 	0 	
0.415 0.320632 	0 	0 	
0.425 2.9198 	0 	0 	
0.435 12.4655 	0 	0 	
0.445 31.9814 	0 	0 	
0.455 59.8779 	0 	0 	
0.465 91.6433 	0 	0 	
0.475 118.847 	0 	0 	
0.485 129.579 	0 	0 	
0.495 130.205 	0 	0 	
0.505 130.166 	0 	0 	
0.515 130.135 	0 	0 	
0.525 130.107 	0 	0 	
0.535 130.076 	0 	0 	
0.545 130.021 	0 	0 	
0.555 128.762 	0 	0 	
0.565 102.296 	0 	0 	
0.575 63.1633 	0 	0 	
0.585 11.6797 	0 	0 	
0.595 0.232209 	0 	0 	
0.605 0.00149505 	0 	0 	
0.615 1.57201e-06 	0 	0 	
0.625 -2.60107e-14 	0 	0 	
0.635 3.64152e-14 	0 	0 	
0.645 7.54319e-14 	0 	0 	
0.655 -6.50269e-14 	0 	0 	
0.665 -1.30047e-15 	0 	0 	
0.675 -6.50271e-14 	0 	0 	
0.685 1.06645e-13 	0 	0 	
0.695 7.80325e-14 	0 	0 	
0.705 5.98253e-14 	0 	0 	
0.715 1.24852e-13 	0 	0 	
0.725 5.20215e-14 	0 	0 	
0.735 -3.51149e-14 	0 	0 	
0.745 -8.58357e-14 	0 	0 	
0.755 0 	0 	0 	
0.765 1.95081e-14 	0 	0 	
0.775 4.55194e-14 	0 	0 	
0.785 4.16171e-14 	0 	0 	
0.795 -4.81204e-14 	0 	0 	
0.805 -5.20216e-14 	0 	0 	
0.815 -7.41312e-14 	0 	0 	
0.825 3.25135e-14 	0 	0 	
0.835 -5.7224e-14 	0 	0 	
0.845 2.34097e-14 	0 	0 	
0.855 -5.59235e-14 	0 	0 	
0.865 -1.69071e-14 	0 	0 	
0.875 -1.04044e-13 	0 	0 	
0.885 1.32656e-13 	0 	0 	
0.895 1.24852e-13 	0 	0 	
0.905 4.94205e-14 	0 	0 	
0.915 -3.25138e-14 	0 	0 	
0.925 -1.88579e-13 	0 	0 	
0.935 -4.5519e-14 	0 	0 	
0.945 2.34098e-14 	0 	0 	
0.955 -3.51148e-14 	0 	0 	
0.965 -7.02295e-14 	0 	0 	
0.975 -5.2022e-14 	0 	0 	
0.985 -3.25136e-14 	0 	0 	
0.995 9.23391e-14 	0 	0 	
