0.005 1.41076e-13 	0 	0 	
0.015 -1.41076e-13 	0 	0 	
0.025 -3.5269e-14 	0 	0 	
0.035 3.5269e-14 	0 	0 	
0.045 3.5269e-14 	0 	0 	
0.055 -1.41076e-13 	0 	0 	
0.065 1.05807e-13 	0 	0 	
0.075 -1.05807e-13 	0 	0 	
0.085 7.0538e-14 	0 	0 	
0.095 -1.05807e-13 	0 	0 	
0.105 3.5269e-14 	0 	0 	
0.115 -3.5269e-14 	0 	0 	
0.125 7.0538e-14 	-1.346e-30 	0 	
0.135 -2.82152e-13 	0 	0 	
0.145 3.5269e-14 	0 	0 	
0.155 -7.0538e-14 	0 	0 	
0.165 -3.5269e-14 	0 	0 	
0.175 3.52689e-14 	-2.93674e-30 	0 	
0.185 1.41076e-13 	-2.692e-30 	0 	
0.195 2.63132e-24 	0 	0 	
0.205 -1.05807e-13 	0 	0 	
0.215 3.5269e-14 	0 	0 	
0.225 -1.3151e-24 	0 	0 	
0.235 -3.5269e-14 	0 	0 	
0.245 -1.41076e-13 	0 	0 	
0.255 7.05379e-14 	-3.18146e-30 	0 	
0.265 3.5269e-14 	-3.18146e-30 	0 	
0.275 2.46883e-13 	0 	0 	
0.285 3.5269e-14 	0 	0 	
0.295 -3.5269e-14 	0 	0 	
0.305 3.5269e-14 	0 	0 	
0.315 -7.05381e-14 	0 	0 	
0.325 2.82152e-13 	0 	0 	
0.335 7.0538e-14 	0 	0 	
0.345 -3.5269e-14 	0 	0 	
0.355 7.0538e-14 	-2.93674e-30 	0 	
0.365 -3.5269e-14 	0 	0 	
0.375 1.05807e-13 	0 	0 	
0.385 3.52689e-14 	0 	0 	
0.395 7.0538e-14 	0 	0 	
0.405 1.76345e-13 	0 	0 	
0.415 7.05381e-14 	3.18146e-30 	0 	
0.425 -7.0538e-14 	2.93674e-30 	0 	
0.435 0.000152763 	-1.46837e-30 	0 	
0.445 0.096753 	2.44773e-30 	0 	
0.455 2.95389 	0 	0 	
0.465 19.8023 	2.58102e-31 	0 	
0.475 58.0344 	0 	0 	
0.485 106.591 	-1.12664e-46 	0 	
0.495 129.693 	5.53615e-31 	0 	
0.505 130.183 	-1.86408e-31 	0 	
0.515 130.119 	0 	0 	
0.525 129.367 	0 	0 	
0.535 124.61 	0 	0 	
0.545 47.9609 	0 	0 	
0.555 1.17902 	0 	0 	
0.565 0.00100264 	0 	0 	
0.575 -2.64518e-14 	0 	0 	
0.585 5.29035e-14 	0 	0 	
0.595 -1.85162e-13 	0 	0 	
0.605 5.29037e-14 	0 	0 	
0.615 1.32259e-13 	0 	0 	
0.625 1.58711e-13 	0 	0 	
0.635 1.85162e-13 	0 	0 	
0.645 -5.29035e-14 	0 	0 	
0.655 -1.5871e-13 	0 	0 	
0.665 5.29035e-14 	0 	0 	
0.675 5.29035e-14 	0 	0 	
0.685 -1.5871e-13 	0 	0 	
0.695 -5.29035e-14 	0 	0 	
0.705 1.5871e-13 	0 	0 	
0.715 -1.32259e-13 	0 	0 	
0.725 -7.9355e-14 	0 	0 	
0.735 -2.6452e-14 	0 	0 	
0.745 2.6452e-14 	0 	0 	
0.755 -1.05807e-13 	0 	0 	
0.765 -1.05807e-13 	0 	0 	
0.775 7.93553e-14 	0 	0 	
0.785 -2.64515e-14 	0 	0 	
0.795 -2.64517e-14 	0 	0 	
0.805 -5.29037e-14 	0 	0 	
0.815 5.29035e-14 	0 	0 	
0.825 -2.93381e-24 	0 	0 	
0.835 -4.88967e-24 	0 	0 	
0.845 5.29035e-14 	0 	0 	
0.855 1.05807e-13 	0 	0 	
0.865 -1.26218e-29 	0 	0 	
0.875 -7.93552e-14 	0 	0 	
0.885 -7.93553e-14 	0 	0 	
0.895 7.93555e-14 	0 	0 	
0.905 -1.80579e-29 	0 	0 	
0.915 7.93555e-14 	0 	0 	
0.925 2.6452e-14 	0 	0 	
0.935 5.29035e-14 	0 	0 	
0.945 2.64515e-14 	0 	0 	
0.955 7.93555e-14 	0 	0 	
0.965 -2.11614e-13 	0 	0 	
0.975 5.85706e-24 	0 	0 	
0.985 7.93552e-14 	0 	0 	
0.995 -2.64518e-14 	0 	0 	
