0.005 3.80244e-14 	0 	0 	
0.015 -1.68997e-14 	0 	0 	
0.025 4.22494e-15 	0 	0 	
0.035 1.05623e-13 	0 	0 	
0.045 1.14073e-13 	0 	0 	
0.055 4.22494e-14 	0 	0 	
0.065 9.29486e-14 	-2.3453e-30 	0 	
0.075 1.68998e-14 	0 	0 	
0.085 -2.62675e-29 	0 	0 	
0.095 -7.60489e-14 	0 	0 	
0.105 9.71736e-14 	0 	0 	
0.115 4.64743e-14 	0 	0 	
0.125 1.26748e-14 	0 	0 	
0.135 7.60489e-14 	0 	0 	
0.145 -8.87237e-14 	0 	0 	
0.155 5.06993e-14 	0 	0 	
0.165 -1.60548e-13 	0 	0 	
0.175 -4.64743e-14 	0 	0 	
0.185 -3.80244e-14 	0 	0 	
0.195 8.02738e-14 	0 	0 	
0.205 2.53496e-14 	0 	0 	
0.215 6.7599e-14 	0 	0 	
0.225 8.87237e-14 	0 	0 	
0.235 5.91491e-14 	0 	0 	
0.245 -1.26748e-14 	0 	0 	
0.255 -1.26748e-14 	0 	0 	
0.265 1.26748e-13 	0 	0 	
0.275 -5.06993e-14 	0 	0 	
0.285 7.18239e-14 	0 	0 	
0.295 8.44988e-15 	0 	0 	
0.305 8.02738e-14 	0 	0 	
0.315 -4.64743e-14 	0 	0 	
0.325 9.71736e-14 	0 	0 	
0.335 3.80244e-14 	0 	0 	
0.345 1.01399e-13 	0 	0 	
0.355 3.80244e-14 	0 	0 	
0.365 7.60489e-14 	0 	0 	
0.375 4.22494e-15 	0 	0 	
0.385 -7.18239e-14 	0 	0 	
0.395 9.71736e-14 	0 	0 	
0.405 5.49242e-14 	0 	0 	
0.415 1.26748e-14 	0 	0 	
0.425 2.11247e-14 	0 	0 	
0.435 0.000252593 	0 	0 	
0.445 0.0905025 	0 	0 	
0.455 2.61887 	0 	0 	
0.465 17.8511 	0 	0 	
0.475 53.9045 	0 	0 	
0.485 102.108 	3.20268e-31 	0 	
0.495 129.044 	0 	0 	
0.505 130.192 	0 	0 	
0.515 130.127 	0 	0 	
0.525 129.592 	0 	0 	
0.535 120.756 	0 	0 	
0.545 59.0298 	0 	0 	
0.555 2.42513 	0 	0 	
0.565 0.00676034 	0 	0 	
0.575 2.85182e-14 	0 	0 	
0.585 -6.33748e-15 	0 	0 	
0.595 -5.06994e-14 	0 	0 	
0.605 -4.11929e-14 	0 	0 	
0.615 -6.65425e-14 	0 	0 	
0.625 9.50609e-14 	0 	0 	
0.635 5.0699e-14 	0 	0 	
0.645 -4.11931e-14 	0 	0 	
0.655 -3.16884e-15 	0 	0 	
0.665 1.90123e-14 	0 	0 	
0.675 -1.93291e-13 	0 	0 	
0.685 2.21812e-14 	0 	0 	
0.695 -6.97113e-14 	0 	0 	
0.705 -6.02053e-14 	0 	0 	
0.715 -5.3868e-14 	0 	0 	
0.725 9.50611e-14 	1.75898e-30 	0 	
0.735 4.11932e-14 	0 	0 	
0.745 3.16884e-15 	0 	0 	
0.755 5.70364e-14 	0 	0 	
0.765 -1.9012e-14 	-6.33236e-30 	0 	
0.775 -4.75306e-14 	0 	0 	
0.785 -2.535e-14 	0 	0 	
0.795 6.02051e-14 	0 	0 	
0.805 1.74279e-13 	0 	0 	
0.815 -4.43614e-14 	2.81437e-30 	0 	
0.825 -1.90123e-14 	1.23129e-30 	0 	
0.835 -1.26747e-14 	0 	0 	
0.845 5.70364e-14 	0 	0 	
0.855 3.1689e-15 	0 	0 	
0.865 -1.58438e-14 	0 	0 	
0.875 2.53494e-14 	0 	0 	
0.885 -4.43616e-14 	0 	0 	
0.895 -8.87236e-14 	0 	0 	
0.905 3.16871e-14 	0 	0 	
0.915 1.9012e-14 	0 	0 	
0.925 1.36254e-13 	0 	0 	
0.935 -1.24993e-19 	0 	0 	
0.945 1.17242e-13 	0 	0 	
0.955 -1.90121e-14 	0 	0 	
0.965 -4.11929e-14 	0 	0 	
0.975 1.90123e-14 	0 	0 	
0.985 3.16872e-14 	0 	0 	
0.995 1.26748e-14 	0 	0 	
