0.005 2.16533e-13 	0 	0 	
0.015 -7.46434e-14 	0 	0 	
0.025 4.0348e-14 	0 	0 	
0.035 -3.29509e-14 	0 	0 	
0.045 -3.49681e-14 	0 	0 	
0.055 5.17794e-14 	0 	0 	
0.065 1.06922e-13 	0 	0 	
0.075 -6.72463e-14 	0 	0 	
0.085 -6.25392e-14 	0 	0 	
0.095 -7.73331e-14 	0 	0 	
0.105 -1.02887e-13 	0 	0 	
0.115 -4.10201e-14 	9.79892e-30 	0 	
0.125 -5.04346e-14 	0 	0 	
0.135 -7.06085e-14 	0 	0 	
0.145 -2.86469e-13 	0 	0 	
0.155 -4.43827e-14 	0 	0 	
0.165 -4.97624e-14 	0 	0 	
0.175 -2.01739e-14 	0 	0 	
0.185 -7.06086e-14 	0 	0 	
0.195 -5.37995e-15 	0 	0 	
0.205 -4.23651e-14 	0 	0 	
0.215 -6.38842e-14 	0 	0 	
0.225 -1.54666e-13 	0 	0 	
0.235 -4.23651e-14 	0 	0 	
0.245 -1.10956e-13 	0 	0 	
0.255 1.43907e-13 	0 	0 	
0.265 1.41217e-14 	0 	0 	
0.275 4.371e-14 	0 	0 	
0.285 -3.29509e-14 	0 	0 	
0.295 1.05039e-12 	0 	0 	
0.305 8.05579e-10 	0 	0 	
0.315 1.55305e-07 	0 	0 	
0.325 1.22258e-05 	0 	0 	
0.335 0.000483474 	0 	0 	
0.345 0.00976037 	0 	0 	
0.355 0.109792 	0 	0 	
0.365 0.747098 	0 	0 	
0.375 3.17206 	0 	0 	
0.385 9.11504 	0 	0 	
0.395 19.5594 	0 	0 	
0.405 34.189 	0 	0 	
0.415 51.9023 	0 	0 	
0.425 71.4796 	0 	0 	
0.435 91.5725 	0 	0 	
0.445 110.146 	0 	0 	
0.455 123.729 	0 	0 	
0.465 129.4 	0 	0 	
0.475 130.187 	0 	0 	
0.485 130.182 	0 	0 	
0.495 130.159 	0 	0 	
0.505 130.142 	0 	0 	
0.515 130.128 	0 	0 	
0.525 130.116 	0 	0 	
0.535 130.106 	0 	0 	
0.545 130.096 	0 	0 	
0.555 130.087 	0 	0 	
0.565 130.077 	0 	0 	
0.575 130.066 	0 	0 	
0.585 130.052 	0 	0 	
0.595 130.017 	0 	0 	
0.605 129.903 	0 	0 	
0.615 131.912 	0 	0 	
0.625 122.47 	0 	0 	
0.635 77.8629 	0 	0 	
0.645 11.2257 	0 	0 	
0.655 0.481213 	0 	0 	
0.665 0.0128425 	0 	0 	
0.675 0.000206114 	0 	0 	
0.685 1.88691e-06 	0 	0 	
0.695 7.55015e-09 	0 	0 	
0.705 8.51942e-12 	0 	0 	
0.715 2.42088e-14 	0 	0 	
0.725 -3.27826e-14 	0 	0 	
0.735 -8.12e-14 	0 	0 	
0.745 -2.92524e-14 	0 	0 	
0.755 -7.21216e-14 	0 	0 	
0.765 -9.28e-14 	0 	0 	
0.775 -9.33043e-14 	0 	0 	
0.785 -2.72344e-14 	0 	0 	
0.795 1.76524e-14 	0 	0 	
0.805 2.06057e-29 	0 	0 	
0.815 6.45565e-14 	0 	0 	
0.825 4.03475e-14 	0 	0 	
0.835 7.56521e-14 	0 	0 	
0.845 3.32868e-14 	0 	0 	
0.855 9.78434e-14 	0 	0 	
0.865 1.03895e-13 	0 	0 	
0.875 -2.5217e-14 	0 	0 	
0.885 3.37915e-14 	0 	0 	
0.895 2.06784e-14 	0 	0 	
0.905 8.5739e-15 	0 	0 	
0.915 5.54782e-14 	0 	0 	
0.925 3.27824e-14 	0 	0 	
0.935 -5.49741e-14 	0 	0 	
0.945 2.11825e-14 	0 	0 	
0.955 4.94261e-14 	0 	0 	
0.965 4.8922e-14 	0 	0 	
0.975 -3.02612e-14 	0 	0 	
0.985 1.46262e-14 	0 	0 	
0.995 -5.39651e-14 	0 	0 	
