0.005 -1.70467e-14 	0 	0 	
0.015 -1.02281e-14 	0 	0 	
0.025 1.00005e-19 	0 	0 	
0.035 -1.15918e-13 	0 	0 	
0.045 5.45496e-14 	0 	0 	
0.055 6.1368e-14 	0 	0 	
0.065 1.70469e-14 	0 	0 	
0.075 1.70469e-14 	0 	0 	
0.085 -1.3637e-14 	0 	0 	
0.095 -1.46602e-13 	0 	0 	
0.105 1.26145e-13 	0 	0 	
0.115 2.0456e-14 	0 	0 	
0.125 3.40933e-14 	0 	0 	
0.135 -6.47775e-14 	0 	0 	
0.145 1.43192e-13 	0 	0 	
0.155 6.8187e-15 	0 	0 	
0.165 -8.52333e-14 	0 	0 	
0.175 9.99945e-20 	0 	0 	
0.185 4.09123e-14 	-4.96798e-30 	0 	
0.195 -6.81865e-15 	0 	0 	
0.205 9.88711e-14 	0 	0 	
0.215 1.97742e-13 	0 	0 	
0.225 -3.40933e-14 	0 	0 	
0.235 -2.0456e-14 	0 	0 	
0.245 6.8187e-14 	0 	0 	
0.255 -3.4093e-15 	-4.49485e-30 	0 	
0.265 1.39783e-13 	-2.24742e-30 	0 	
0.275 -1.99991e-19 	0 	0 	
0.285 -3.40928e-15 	0 	0 	
0.295 1.36373e-14 	0 	0 	
0.305 9.2052e-14 	0 	0 	
0.315 -9.2052e-14 	0 	0 	
0.325 5.11402e-14 	0 	0 	
0.335 -1.67058e-13 	0 	0 	
0.345 5.45491e-14 	0 	0 	
0.355 3.06841e-14 	-2.01085e-30 	0 	
0.365 2.72746e-14 	0 	0 	
0.375 -1.70465e-14 	0 	0 	
0.385 3.7503e-14 	0 	0 	
0.395 2.99122e-07 	0 	0 	
0.405 0.000269518 	0 	0 	
0.415 0.0260588 	0 	0 	
0.425 0.598383 	0 	0 	
0.435 4.82398 	0 	0 	
0.445 18.4086 	0 	0 	
0.455 43.5044 	0 	0 	
0.465 76.646 	0 	0 	
0.475 109.909 	0 	0 	
0.485 128.227 	0 	0 	
0.495 130.211 	7.14895e-31 	0 	
0.505 130.173 	0 	0 	
0.515 130.138 	0 	0 	
0.525 130.108 	0 	0 	
0.535 130.068 	0 	0 	
0.545 129.657 	0 	0 	
0.555 122.737 	0 	0 	
0.565 90.5907 	0 	0 	
0.575 18.1751 	0 	0 	
0.585 0.440149 	0 	0 	
0.595 0.00263825 	0 	0 	
0.605 1.97255e-06 	0 	0 	
0.615 7.67099e-15 	0 	0 	
0.625 5.114e-14 	0 	0 	
0.635 -6.90394e-14 	0 	0 	
0.645 3.83555e-14 	0 	0 	
0.655 -3.57981e-14 	0 	0 	
0.665 6.13683e-14 	0 	0 	
0.675 -1.8326e-24 	0 	0 	
0.685 -8.43814e-14 	0 	0 	
0.695 1.61091e-13 	0 	0 	
0.705 1.32964e-13 	0 	0 	
0.715 -7.15962e-14 	0 	0 	
0.725 -3.8355e-14 	0 	0 	
0.735 2.81274e-14 	0 	0 	
0.745 1.02284e-14 	0 	0 	
0.755 1.50863e-13 	0 	0 	
0.765 2.557e-15 	0 	0 	
0.775 5.114e-14 	0 	0 	
0.785 -2.557e-14 	0 	0 	
0.795 -5.36974e-14 	0 	0 	
0.805 -7.1596e-14 	0 	0 	
0.815 4.09121e-14 	0 	0 	
0.825 -1.0228e-13 	0 	0 	
0.835 -1.7899e-14 	0 	0 	
0.845 -1.7899e-14 	0 	0 	
0.855 4.34691e-14 	0 	0 	
0.865 2.55696e-15 	0 	0 	
0.875 8.81438e-25 	0 	0 	
0.885 4.0912e-14 	0 	0 	
0.895 -7.671e-14 	0 	0 	
0.905 -5.6254e-14 	0 	0 	
0.915 7.92673e-14 	0 	0 	
0.925 7.671e-14 	0 	0 	
0.935 -9.20524e-14 	0 	0 	
0.945 3.5798e-14 	0 	0 	
0.955 1.38078e-13 	0 	0 	
0.965 -7.1596e-14 	0 	0 	
0.975 -1.2785e-14 	0 	0 	
0.985 4.85829e-14 	0 	0 	
0.995 1.04837e-13 	0 	0 	
