0.005 -8.89075e-14 	0 	0 	
0.015 7.27421e-14 	0 	0 	
0.025 -6.46599e-14 	0 	0 	
0.035 -5.65771e-14 	0 	0 	
0.045 5.65775e-14 	0 	0 	
0.055 8.08245e-15 	0 	0 	
0.065 -2.42476e-14 	0 	0 	
0.075 -6.46595e-14 	0 	0 	
0.085 -6.466e-14 	0 	0 	
0.095 -5.65776e-14 	0 	0 	
0.105 4.04125e-14 	0 	0 	
0.115 -3.89271e-19 	0 	0 	
0.125 -8.08249e-15 	0 	0 	
0.135 5.65775e-14 	0 	0 	
0.145 6.46599e-14 	0 	0 	
0.155 7.27426e-14 	0 	0 	
0.165 1.13154e-13 	0 	0 	
0.175 7.27421e-14 	0 	0 	
0.185 -5.65771e-14 	0 	0 	
0.195 7.27424e-14 	0 	0 	
0.205 4.04125e-14 	0 	0 	
0.215 4.04125e-14 	0 	0 	
0.225 -3.233e-14 	0 	0 	
0.235 2.42471e-14 	0 	0 	
0.245 4.84945e-14 	0 	0 	
0.255 8.08254e-15 	0 	0 	
0.265 5.65775e-14 	0 	0 	
0.275 5.65774e-14 	0 	0 	
0.285 -1.21237e-13 	0 	0 	
0.295 1.53567e-13 	0 	0 	
0.305 -8.08212e-15 	0 	0 	
0.315 -1.05072e-13 	1.12167e-30 	0 	
0.325 5.65775e-14 	0 	0 	
0.335 -5.17743e-20 	-1.12167e-30 	0 	
0.345 -3.233e-14 	0 	0 	
0.355 1.61649e-14 	-5.60835e-31 	0 	
0.365 -4.8495e-14 	2.24334e-30 	0 	
0.375 -2.42475e-14 	0 	0 	
0.385 3.23302e-14 	0 	0 	
0.395 -2.42475e-14 	0 	0 	
0.405 8.89074e-14 	0 	0 	
0.415 -4.04125e-14 	0 	0 	
0.425 3.23301e-14 	0 	0 	
0.435 -4.8495e-14 	0 	0 	
0.445 -3.233e-14 	0 	0 	
0.455 -6.466e-14 	0 	0 	
0.465 0.0250932 	-1.1217e-30 	0 	
0.475 4.13546 	0 	0 	
0.485 39.1377 	0 	0 	
0.495 111.936 	-1.61974e-31 	0 	
0.505 130.075 	-9.37297e-32 	0 	
0.515 117.833 	0 	0 	
0.525 34.8888 	0 	0 	
0.535 0.142772 	0 	0 	
0.545 -3.88369e-20 	0 	0 	
0.555 -5.45568e-14 	0 	0 	
0.565 -4.24332e-14 	0 	0 	
0.575 -4.2433e-14 	0 	0 	
0.585 -6.66806e-14 	0 	0 	
0.595 5.45569e-14 	0 	0 	
0.605 -6.06186e-15 	0 	0 	
0.615 -1.21238e-14 	0 	0 	
0.625 9.69899e-14 	0 	0 	
0.635 -7.88044e-14 	0 	0 	
0.645 -1.21237e-14 	0 	0 	
0.655 7.88043e-14 	0 	0 	
0.665 2.42476e-14 	0 	0 	
0.675 -3.63713e-14 	0 	0 	
0.685 4.84951e-14 	0 	0 	
0.695 -4.2433e-14 	0 	0 	
0.705 -5.13373e-20 	0 	0 	
0.715 -6.06186e-15 	0 	0 	
0.725 -6.06188e-14 	0 	0 	
0.735 1.39423e-13 	0 	0 	
0.745 -3.63712e-14 	0 	0 	
0.755 6.66805e-14 	0 	0 	
0.765 5.45568e-14 	0 	0 	
0.775 1.21237e-14 	0 	0 	
0.785 -8.48661e-14 	0 	0 	
0.795 -3.03093e-14 	0 	0 	
0.805 1.21234e-14 	0 	0 	
0.815 -6.66807e-14 	0 	0 	
0.825 -1.21237e-14 	0 	0 	
0.835 4.40718e-25 	0 	0 	
0.845 2.42474e-14 	0 	0 	
0.855 6.06186e-15 	0 	0 	
0.865 2.42474e-14 	0 	0 	
0.875 -7.27425e-14 	0 	0 	
0.885 6.0619e-15 	0 	0 	
0.895 5.4557e-14 	0 	0 	
0.905 1.21237e-14 	0 	0 	
0.915 -1.51547e-13 	0 	0 	
0.925 -1.81856e-14 	0 	0 	
0.935 -3.03093e-14 	0 	0 	
0.945 2.42475e-14 	0 	0 	
0.955 9.699e-14 	0 	0 	
0.965 -7.27426e-14 	0 	0 	
0.975 9.69896e-14 	0 	0 	
0.985 -1.81856e-14 	0 	0 	
0.995 -3.03095e-14 	0 	0 	
