0.005 6.24261e-14 	0 	0 	
0.015 -1.47395e-13 	0 	0 	
0.025 9.53732e-14 	0 	0 	
0.035 1.12714e-13 	0 	0 	
0.045 -1.45661e-13 	0 	0 	
0.055 -5.02877e-14 	0 	0 	
0.065 1.24853e-13 	0 	0 	
0.075 8.67029e-14 	0 	0 	
0.085 -3.98832e-14 	9.14469e-30 	0 	
0.095 1.00575e-13 	0 	0 	
0.105 6.58944e-14 	0 	0 	
0.115 -5.20223e-15 	-4.57234e-30 	0 	
0.125 -1.73406e-14 	4.33169e-30 	0 	
0.135 3.29472e-14 	0 	0 	
0.145 5.549e-14 	0 	0 	
0.155 1.21386e-14 	0 	0 	
0.165 4.50856e-14 	0 	0 	
0.175 9.53733e-14 	0 	0 	
0.185 1.07512e-13 	0 	0 	
0.195 -6.76284e-14 	0 	0 	
0.205 2.02885e-13 	0 	0 	
0.215 5.89576e-14 	0 	0 	
0.225 -1.04044e-13 	0 	0 	
0.235 -1.09246e-13 	0 	0 	
0.245 7.28304e-14 	0 	0 	
0.255 3.12131e-14 	0 	0 	
0.265 3.46812e-14 	0 	0 	
0.275 -5.20218e-14 	0 	0 	
0.285 8.32348e-14 	0 	0 	
0.295 -8.84374e-14 	0 	0 	
0.305 -6.06921e-14 	0 	0 	
0.315 -2.42769e-14 	0 	0 	
0.325 -5.20219e-14 	0 	0 	
0.335 -1.05778e-13 	0 	0 	
0.345 -9.53733e-14 	0 	0 	
0.355 3.1213e-14 	0 	0 	
0.365 3.12132e-14 	0 	0 	
0.375 -7.80329e-14 	0 	0 	
0.385 -2.77449e-14 	0 	0 	
0.395 3.12134e-14 	0 	0 	
0.405 7.61351e-06 	0 	0 	
0.415 0.00331627 	0 	0 	
0.425 0.173939 	0 	0 	
0.435 2.37453 	0 	0 	
0.445 12.4562 	0 	0 	
0.455 35.1042 	0 	0 	
0.465 68.254 	0 	0 	
0.475 104.294 	0 	0 	
0.485 127.113 	0 	0 	
0.495 130.209 	0 	0 	
0.505 130.174 	0 	0 	
0.515 130.136 	0 	0 	
0.525 130.101 	0 	0 	
0.535 130.023 	0 	0 	
0.545 129.864 	0 	0 	
0.555 122.422 	0 	0 	
0.565 65.0127 	0 	0 	
0.575 3.98155 	0 	0 	
0.585 0.0394806 	0 	0 	
0.595 5.61106e-05 	0 	0 	
0.605 2.60109e-15 	0 	0 	
0.615 7.41309e-14 	0 	0 	
0.625 -7.15299e-14 	0 	0 	
0.635 4.2918e-14 	0 	0 	
0.645 -4.03171e-14 	0 	0 	
0.655 -3.12129e-14 	0 	0 	
0.665 4.94206e-14 	0 	0 	
0.675 -7.50826e-29 	0 	0 	
0.685 4.03171e-14 	0 	0 	
0.695 -9.23386e-14 	0 	0 	
0.705 -9.75409e-14 	0 	0 	
0.715 -2.21093e-14 	0 	0 	
0.725 -8.81488e-25 	0 	0 	
0.735 -1.62568e-13 	0 	0 	
0.745 3.25136e-14 	0 	0 	
0.755 -4.0317e-14 	0 	0 	
0.765 -5.33225e-14 	0 	0 	
0.775 7.8033e-14 	0 	0 	
0.785 -7.28309e-14 	0 	0 	
0.795 5.33225e-14 	0 	0 	
0.805 -1.92481e-13 	0 	0 	
0.815 -8.32349e-14 	0 	0 	
0.825 -3.90162e-14 	0 	0 	
0.835 2.60109e-14 	0 	0 	
0.845 -2.86119e-14 	0 	0 	
0.855 -1.82075e-14 	0 	0 	
0.865 1.69071e-14 	0 	0 	
0.875 2.60109e-14 	0 	0 	
0.885 -1.04046e-14 	0 	0 	
0.895 2.471e-14 	0 	0 	
0.905 -4.94207e-14 	0 	0 	
0.915 7.80327e-15 	0 	0 	
0.925 -1.17049e-13 	0 	0 	
0.935 -5.07214e-14 	0 	0 	
0.945 -2.34097e-14 	0 	0 	
0.955 8.06336e-14 	0 	0 	
0.965 -1.17049e-13 	0 	0 	
0.975 1.56065e-13 	0 	0 	
0.985 -1.06645e-13 	0 	0 	
0.995 9.23387e-14 	0 	0 	
