0.005 -7.05385e-14 	0 	0 	
0.015 3.5269e-14 	0 	0 	
0.025 -1.41076e-13 	0 	0 	
0.035 -3.87959e-13 	0 	0 	
0.045 7.0538e-14 	0 	0 	
0.055 2.11614e-13 	0 	0 	
0.065 -3.5269e-14 	0 	0 	
0.075 3.5269e-14 	0 	0 	
0.085 -2.63247e-24 	0 	0 	
0.095 7.89751e-24 	0 	0 	
0.105 7.0538e-14 	0 	0 	
0.115 7.89918e-24 	0 	0 	
0.125 -7.05385e-14 	-3.79329e-30 	0 	
0.135 -7.0538e-14 	0 	0 	
0.145 7.05381e-14 	0 	0 	
0.155 3.5269e-14 	0 	0 	
0.165 -3.5269e-14 	0 	0 	
0.175 -1.05807e-13 	-8.32074e-30 	0 	
0.185 4.34883e-29 	-7.58658e-30 	0 	
0.195 -1.05807e-13 	0 	0 	
0.205 -1.41076e-13 	0 	0 	
0.215 -1.05807e-13 	0 	0 	
0.225 -3.52689e-14 	0 	0 	
0.235 -3.52689e-14 	0 	0 	
0.245 -2.46883e-13 	0 	0 	
0.255 -2.62898e-24 	-8.81022e-30 	0 	
0.265 3.5269e-14 	-8.56548e-30 	0 	
0.275 2.62896e-24 	0 	0 	
0.285 1.05807e-13 	0 	0 	
0.295 -3.5269e-14 	0 	0 	
0.305 -7.0538e-14 	0 	0 	
0.315 2.6266e-24 	0 	0 	
0.325 7.03617e-11 	0 	0 	
0.335 6.37236e-08 	0 	0 	
0.345 1.16463e-05 	0 	0 	
0.355 0.000715117 	-7.58658e-30 	0 	
0.365 0.0186194 	0 	0 	
0.375 0.23417 	0 	0 	
0.385 1.56109 	0 	0 	
0.395 6.10329 	0 	0 	
0.405 15.8681 	-1.2799e-30 	0 	
0.415 31.0849 	5.3574e-30 	0 	
0.425 50.5147 	-2.84266e-31 	0 	
0.435 72.4686 	4.56675e-31 	0 	
0.445 94.9821 	-1.38027e-45 	0 	
0.455 114.891 	6.98746e-31 	0 	
0.465 127.016 	-3.64491e-31 	0 	
0.475 130.06 	0 	0 	
0.485 130.189 	-2.76862e-31 	0 	
0.495 -4749.07 	1.47349e-34 	0 	
0.505 -8.29012e+13 	-7.51068e-36 	0 	
0.515 -4.50745e+28 	0 	0 	
0.525 -1.21638e+44 	0 	0 	
0.535 -2.0508e+48 	0 	0 	
0.545 8.02206e+44 	0 	0 	
0.555 2.75979e+42 	0 	0 	
0.565 1.58306e+37 	0 	0 	
0.575 -5.15246e+38 	0 	0 	
0.585 -2.00419e+42 	0 	0 	
0.595 4.14187e+38 	0 	0 	
0.605 3.15321e+34 	0 	0 	
0.615 2.33251e+20 	0 	0 	
0.625 5.2458e+14 	0 	0 	
0.635 3.78769e+08 	0 	0 	
0.645 0.0177488 	0 	0 	
0.655 0.000173724 	0 	0 	
0.665 6.62888e-07 	0 	0 	
0.675 5.48213e-10 	0 	0 	
0.685 7.85168e-24 	0 	0 	
0.695 1.05807e-13 	0 	0 	
0.705 -7.93553e-14 	0 	0 	
0.715 -1.05807e-13 	0 	0 	
0.725 1.32259e-13 	0 	0 	
0.735 -7.93555e-14 	0 	0 	
0.745 5.29037e-14 	0 	0 	
0.755 -2.64515e-14 	0 	0 	
0.765 -7.93555e-14 	0 	0 	
0.775 7.93555e-14 	0 	0 	
0.785 -2.6452e-14 	0 	0 	
0.795 7.93553e-14 	0 	0 	
0.805 -7.93555e-14 	0 	0 	
0.815 -2.64515e-14 	0 	0 	
0.825 5.29035e-14 	0 	0 	
0.835 7.93555e-14 	0 	0 	
0.845 1.32259e-13 	0 	0 	
0.855 2.90969e-13 	0 	0 	
0.865 1.95586e-24 	0 	0 	
0.875 1.5871e-13 	0 	0 	
0.885 -7.93553e-14 	0 	0 	
0.895 -7.93555e-14 	0 	0 	
0.905 1.58711e-13 	0 	0 	
0.915 -1.32259e-13 	0 	0 	
0.925 1.32259e-13 	0 	0 	
0.935 5.29035e-14 	0 	0 	
0.945 -2.64515e-14 	0 	0 	
0.955 -5.85699e-24 	0 	0 	
0.965 -2.64515e-14 	0 	0 	
0.975 5.29035e-14 	0 	0 	
0.985 7.93553e-14 	0 	0 	
0.995 -5.29035e-14 	0 	0 	
