0.005 1.26748e-14 	0 	0 	
0.015 1.22523e-13 	0 	0 	
0.025 -5.06993e-14 	0 	0 	
0.035 9.29486e-14 	0 	0 	
0.045 6.33741e-14 	0 	0 	
0.055 4.22494e-14 	0 	0 	
0.065 6.33741e-14 	-6.56688e-30 	0 	
0.075 3.37995e-14 	0 	0 	
0.085 -1.90122e-13 	0 	0 	
0.095 -2.53496e-14 	0 	0 	
0.105 -4.64743e-14 	0 	0 	
0.115 -7.60489e-14 	0 	0 	
0.125 8.87237e-14 	0 	0 	
0.135 1.47873e-13 	0 	0 	
0.145 -1.26748e-14 	0 	0 	
0.155 8.44988e-14 	0 	0 	
0.165 -4.22494e-14 	0 	0 	
0.175 8.87237e-14 	0 	0 	
0.185 2.11247e-14 	0 	0 	
0.195 9.29486e-14 	0 	0 	
0.205 -1.30973e-13 	0 	0 	
0.215 -1.68997e-14 	0 	0 	
0.225 4.22494e-15 	0 	0 	
0.235 -2.53496e-14 	0 	0 	
0.245 -2.95746e-14 	0 	0 	
0.255 -5.91491e-14 	0 	0 	
0.265 -5.91491e-14 	0 	0 	
0.275 6.7599e-14 	0 	0 	
0.285 -8.44988e-15 	0 	0 	
0.295 9.71736e-14 	0 	0 	
0.305 4.22494e-14 	0 	0 	
0.315 8.44988e-15 	0 	0 	
0.325 8.71183e-12 	0 	0 	
0.335 1.10216e-08 	0 	0 	
0.345 2.54008e-06 	0 	0 	
0.355 0.000188428 	0 	0 	
0.365 0.00612087 	0 	0 	
0.375 0.0973895 	0 	0 	
0.385 0.802604 	0 	0 	
0.395 3.77559 	0 	0 	
0.405 11.3768 	0 	0 	
0.415 24.723 	0 	0 	
0.425 43.0494 	0 	0 	
0.435 64.7286 	0 	0 	
0.445 87.8173 	1.22707e-30 	0 	
0.455 109.445 	3.30087e-31 	0 	
0.465 124.611 	0 	0 	
0.475 129.788 	0 	0 	
0.485 130.201 	5.30722e-31 	0 	
0.495 130.174 	0 	0 	
0.505 130.151 	0 	0 	
0.515 130.133 	1.7736e-31 	0 	
0.525 130.118 	0 	0 	
0.535 130.105 	0 	0 	
0.545 130.092 	0 	0 	
0.555 130.079 	-4.85105e-30 	0 	
0.565 130.064 	0 	0 	
0.575 130.039 	0 	0 	
0.585 129.806 	0 	0 	
0.595 129.906 	0 	0 	
0.605 130.543 	0 	0 	
0.615 75.1645 	-2.72071e-31 	0 	
0.625 10.1498 	0 	0 	
0.635 0.351122 	0 	0 	
0.645 0.00699736 	0 	0 	
0.655 7.38094e-05 	0 	0 	
0.665 2.90761e-07 	0 	0 	
0.675 2.49792e-10 	0 	0 	
0.685 -1.26748e-14 	0 	0 	
0.695 -1.58435e-14 	0 	0 	
0.705 -3.16894e-15 	0 	0 	
0.715 -6.65428e-14 	0 	0 	
0.725 -3.1687e-15 	5.62874e-30 	0 	
0.735 -5.38679e-14 	0 	0 	
0.745 -1.10905e-13 	0 	0 	
0.755 -9.18924e-14 	0 	0 	
0.765 -1.90122e-14 	-1.47755e-29 	0 	
0.775 -3.3054e-25 	0 	0 	
0.785 3.16882e-15 	0 	0 	
0.795 -9.506e-15 	0 	0 	
0.805 6.02051e-14 	0 	0 	
0.815 -3.48557e-14 	8.09133e-30 	0 	
0.825 -9.5061e-15 	3.69387e-30 	0 	
0.835 -1.04567e-13 	0 	0 	
0.845 -7.28802e-14 	0 	0 	
0.855 -9.50612e-14 	0 	0 	
0.865 6.33738e-14 	0 	0 	
0.875 4.4362e-14 	0 	0 	
0.885 4.4362e-14 	0 	0 	
0.895 2.85183e-14 	0 	0 	
0.905 6.02055e-14 	0 	0 	
0.915 -6.97116e-14 	0 	0 	
0.925 1.10904e-13 	0 	0 	
0.935 4.43618e-14 	0 	0 	
0.945 7.288e-14 	0 	0 	
0.955 -2.21807e-14 	0 	0 	
0.965 1.20411e-13 	0 	0 	
0.975 1.39423e-13 	0 	0 	
0.985 6.02052e-14 	0 	0 	
0.995 -1.10182e-25 	0 	0 	
