0.005 0 	0 	0 	
0.015 0 	0 	0 	
0.025 0 	0 	0 	
0.035 5.87817e-15 	0 	0 	
0.045 2.05736e-14 	0 	0 	
0.055 2.93908e-14 	0 	0 	
0.065 1.76345e-14 	0 	0 	
0.075 -2.35127e-14 	0 	0 	
0.085 -4.99645e-14 	0 	0 	
0.095 -2.35127e-14 	0 	0 	
0.105 8.81725e-15 	0 	0 	
0.115 3.23299e-14 	0 	0 	
0.125 4.40863e-14 	0 	0 	
0.135 2.05736e-14 	0 	0 	
0.145 -1.76345e-14 	-6.52608e-31 	0 	
0.155 -4.40863e-14 	0 	0 	
0.165 -5.29035e-14 	0 	0 	
0.175 -4.99645e-14 	0 	0 	
0.185 -2.05736e-14 	0 	0 	
0.195 3.5269e-14 	0 	0 	
0.205 4.99645e-14 	0 	0 	
0.215 1.76345e-14 	0 	0 	
0.225 -2.93907e-15 	0 	0 	
0.235 -5.87815e-15 	1.30522e-30 	0 	
0.245 -5.87815e-15 	0 	0 	
0.255 2.49999e-20 	0 	0 	
0.265 8.81727e-15 	0 	0 	
0.275 5.87818e-15 	0 	0 	
0.285 0 	0 	0 	
0.295 0 	0 	0 	
0.305 0 	0 	0 	
0.315 -2.93907e-15 	0 	0 	
0.325 2.9391e-15 	0 	0 	
0.335 8.81725e-15 	0 	0 	
0.345 -2.9391e-15 	0 	0 	
0.355 -5.87818e-15 	0 	0 	
0.365 0 	0 	0 	
0.375 -2.93907e-15 	0 	0 	
0.385 -1.17563e-14 	0 	0 	
0.395 -1.76345e-14 	0 	0 	
0.405 2.49998e-20 	0 	0 	
0.415 2.05736e-14 	0 	0 	
0.425 1.17564e-14 	0 	0 	
0.435 0 	0 	0 	
0.445 0 	0 	0 	
0.455 0 	0 	0 	
0.465 0.103641 	0 	0 	
0.475 6.94768 	0 	0 	
0.485 35.9748 	0 	0 	
0.495 86.3905 	0 	0 	
0.505 112.443 	0 	0 	
0.515 80.1676 	0 	0 	
0.525 29.6541 	0 	0 	
0.535 4.67 	0 	0 	
0.545 0 	0 	0 	
0.555 0 	0 	0 	
0.565 -6.61295e-15 	0 	0 	
0.575 -6.61295e-15 	0 	0 	
0.585 6.61295e-15 	0 	0 	
0.595 6.61295e-15 	0 	0 	
0.605 -6.61295e-15 	0 	0 	
0.615 -8.81728e-15 	0 	0 	
0.625 -4.40865e-15 	0 	0 	
0.635 -8.81727e-15 	0 	0 	
0.645 2.2043e-15 	0 	0 	
0.655 1.76345e-14 	0 	0 	
0.665 -1.32259e-14 	0 	0 	
0.675 -4.84949e-14 	0 	0 	
0.685 -2.42475e-14 	0 	0 	
0.695 2.42475e-14 	0 	0 	
0.705 4.1882e-14 	0 	0 	
0.715 2.42475e-14 	0 	0 	
0.725 4.40863e-15 	0 	0 	
0.735 0 	0 	0 	
0.745 0 	0 	0 	
0.755 0 	0 	0 	
0.765 0 	0 	0 	
0.775 -2.20431e-15 	0 	0 	
0.785 -2.20432e-14 	0 	0 	
0.795 -3.30647e-14 	0 	0 	
0.805 2.2043e-15 	0 	0 	
0.815 3.08604e-14 	-9.78913e-31 	0 	
0.825 1.98388e-14 	0 	0 	
0.835 4.40863e-15 	0 	0 	
0.845 0 	0 	0 	
0.855 0 	0 	0 	
0.865 -8.81725e-15 	0 	0 	
0.875 -1.10216e-14 	0 	0 	
0.885 6.61296e-15 	0 	0 	
0.895 1.10216e-14 	0 	0 	
0.905 5.43285e-26 	0 	0 	
0.915 -1.54302e-14 	0 	0 	
0.925 -2.42475e-14 	0 	0 	
0.935 -2.71409e-25 	0 	0 	
0.945 2.42475e-14 	0 	0 	
0.955 1.54302e-14 	0 	0 	
0.965 2.20432e-15 	0 	0 	
0.975 0 	0 	0 	
0.985 0 	0 	0 	
0.995 0 	0 	0 	
