0.005 7.15963e-14 	0 	0 	
0.015 4.77306e-14 	0 	0 	
0.025 -1.7047e-14 	0 	0 	
0.035 -2.38654e-14 	0 	0 	
0.045 5.04871e-29 	0 	0 	
0.055 -8.18243e-14 	0 	0 	
0.065 1.36374e-14 	0 	0 	
0.075 -3.40934e-14 	0 	0 	
0.085 1.70465e-14 	0 	0 	
0.095 -2.11379e-13 	0 	0 	
0.105 -2.38656e-14 	0 	0 	
0.115 5.45494e-14 	0 	0 	
0.125 6.81869e-14 	0 	0 	
0.135 5.45495e-14 	0 	0 	
0.145 8.86426e-14 	0 	0 	
0.155 -1.70468e-14 	0 	0 	
0.165 1.0228e-13 	0 	0 	
0.175 1.70469e-14 	0 	0 	
0.185 1.67058e-13 	-8.98968e-30 	0 	
0.195 2.72747e-13 	0 	0 	
0.205 2.11379e-13 	0 	0 	
0.215 1.53421e-13 	0 	0 	
0.225 6.81868e-14 	0 	0 	
0.235 9.20521e-14 	0 	0 	
0.245 2.52291e-13 	0 	0 	
0.255 7.50055e-14 	-9.46283e-30 	0 	
0.265 -1.3637e-14 	-4.61312e-30 	0 	
0.275 3.40934e-14 	0 	0 	
0.285 3.75026e-14 	0 	0 	
0.295 1.64399e-11 	0 	0 	
0.305 6.3557e-09 	0 	0 	
0.315 8.96831e-07 	0 	0 	
0.325 5.32586e-05 	0 	0 	
0.335 0.00155482 	0 	0 	
0.345 0.0246186 	0 	0 	
0.355 0.228336 	-4.26078e-30 	0 	
0.365 1.2896 	0 	0 	
0.375 4.68187 	0 	0 	
0.385 11.9538 	0 	0 	
0.395 23.5878 	-2.54907e-31 	0 	
0.405 38.9449 	0 	0 	
0.415 56.909 	0 	0 	
0.425 76.3116 	0 	0 	
0.435 95.8244 	0 	0 	
0.445 113.336 	0 	0 	
0.455 125.316 	0 	0 	
0.465 129.687 	0 	0 	
0.475 130.193 	0 	0 	
0.485 130.177 	0 	0 	
0.495 130.156 	7.13756e-31 	0 	
0.505 130.139 	0 	0 	
0.515 130.125 	0 	0 	
0.525 130.112 	0 	0 	
0.535 130.099 	0 	0 	
0.545 130.083 	0 	0 	
0.555 130.06 	0 	0 	
0.565 130.022 	0 	0 	
0.575 129.972 	0 	0 	
0.585 129.891 	0 	0 	
0.595 -931.92 	0 	0 	
0.605 -481070 	0 	0 	
0.615 2.58688e+06 	0 	0 	
0.625 335926 	0 	0 	
0.635 84715.1 	0 	0 	
0.645 493.859 	0 	0 	
0.655 1.84693 	0 	0 	
0.665 0.0562458 	0 	0 	
0.675 0.00113638 	0 	0 	
0.685 1.29584e-05 	0 	0 	
0.695 6.79926e-08 	0 	0 	
0.705 1.38037e-10 	0 	0 	
0.715 7.92673e-14 	0 	0 	
0.725 1.2785e-13 	0 	0 	
0.735 5.62541e-14 	0 	0 	
0.745 1.15065e-13 	0 	0 	
0.755 1.04838e-13 	0 	0 	
0.765 5.6254e-14 	0 	0 	
0.775 1.2785e-13 	0 	0 	
0.785 -3.5001e-19 	0 	0 	
0.795 -1.7899e-14 	0 	0 	
0.805 5.6254e-14 	0 	0 	
0.815 6.13683e-14 	0 	0 	
0.825 7.671e-14 	0 	0 	
0.835 7.92674e-14 	0 	0 	
0.845 -2.3013e-14 	0 	0 	
0.855 -1.20179e-13 	0 	0 	
0.865 -2.0456e-14 	0 	0 	
0.875 2.55699e-14 	0 	0 	
0.885 -3.32411e-14 	0 	0 	
0.895 1.0228e-14 	0 	0 	
0.905 2.8127e-14 	0 	0 	
0.915 1.78993e-14 	0 	0 	
0.925 -1.27848e-14 	0 	0 	
0.935 -6.3925e-14 	0 	0 	
0.945 -1.5342e-14 	0 	0 	
0.955 5.11401e-15 	0 	0 	
0.965 1.30407e-13 	0 	0 	
0.975 -2.55697e-14 	0 	0 	
0.985 1.12508e-13 	0 	0 	
0.995 4.8583e-14 	0 	0 	
