0.005 -6.7599e-14 	0 	0 	
0.015 -2.95746e-14 	0 	0 	
0.025 9.71736e-14 	0 	0 	
0.035 1.14073e-13 	0 	0 	
0.045 1.14073e-13 	0 	0 	
0.055 9.71736e-14 	0 	0 	
0.065 -4.64743e-14 	-2.57985e-30 	0 	
0.075 4.22494e-15 	0 	0 	
0.085 1.05623e-13 	0 	0 	
0.095 -4.22494e-14 	0 	0 	
0.105 -5.91491e-14 	0 	0 	
0.115 -3.37995e-14 	0 	0 	
0.125 5.91491e-14 	0 	0 	
0.135 1.56323e-13 	0 	0 	
0.145 -1.26748e-14 	0 	0 	
0.155 -1.05623e-13 	0 	0 	
0.165 8.44987e-14 	0 	0 	
0.175 8.44988e-15 	0 	0 	
0.185 -6.7599e-14 	0 	0 	
0.195 1.14073e-13 	0 	0 	
0.205 8.44988e-15 	0 	0 	
0.215 4.64743e-14 	0 	0 	
0.225 3.37995e-14 	0 	0 	
0.235 -8.44988e-14 	0 	0 	
0.245 -3.37995e-14 	0 	0 	
0.255 -5.91491e-14 	0 	0 	
0.265 2.11247e-14 	0 	0 	
0.275 -2.23922e-13 	0 	0 	
0.285 -6.33741e-14 	0 	0 	
0.295 8.87237e-14 	0 	0 	
0.305 3.80244e-14 	0 	0 	
0.315 2.95746e-14 	0 	0 	
0.325 6.7599e-14 	0 	0 	
0.335 9.71736e-14 	0 	0 	
0.345 1.26748e-14 	0 	0 	
0.355 -1.26748e-13 	0 	0 	
0.365 -1.73222e-13 	0 	0 	
0.375 2.11247e-14 	0 	0 	
0.385 -6.33741e-14 	0 	0 	
0.395 8.44988e-15 	0 	0 	
0.405 1.26748e-14 	0 	0 	
0.415 -3.80244e-14 	0 	0 	
0.425 3.41718e-06 	0 	0 	
0.435 0.00649921 	0 	0 	
0.445 0.456263 	0 	0 	
0.455 5.96923 	0 	0 	
0.465 26.7799 	0 	0 	
0.475 65.4137 	0 	0 	
0.485 109.847 	6.57805e-31 	0 	
0.495 129.633 	0 	0 	
0.505 130.19 	0 	0 	
0.515 130.135 	0 	0 	
0.525 129.972 	0 	0 	
0.535 125.948 	0 	0 	
0.545 92.4812 	0 	0 	
0.555 14.2126 	0 	0 	
0.565 0.162666 	0 	0 	
0.575 0.000128899 	0 	0 	
0.585 -2.21811e-14 	0 	0 	
0.595 2.21808e-14 	0 	0 	
0.605 -1.10904e-13 	0 	0 	
0.615 -2.21806e-14 	0 	0 	
0.625 -5.38675e-14 	0 	0 	
0.635 5.70369e-14 	0 	0 	
0.645 -3.16869e-14 	0 	0 	
0.655 9.18924e-14 	0 	0 	
0.665 8.87235e-14 	0 	0 	
0.675 3.16867e-15 	0 	0 	
0.685 5.06992e-14 	0 	0 	
0.695 -4.11931e-14 	0 	0 	
0.705 -6.33773e-15 	0 	0 	
0.715 -1.20411e-13 	0 	0 	
0.725 5.70364e-14 	1.75898e-30 	0 	
0.735 -6.33743e-14 	0 	0 	
0.745 -2.53496e-14 	0 	0 	
0.755 3.80243e-14 	0 	0 	
0.765 -9.50601e-15 	-7.03593e-30 	0 	
0.775 1.90121e-14 	0 	0 	
0.785 4.43619e-14 	0 	0 	
0.795 -1.10205e-25 	0 	0 	
0.805 -4.11933e-14 	0 	0 	
0.815 6.33747e-15 	3.16618e-30 	0 	
0.825 -6.33741e-14 	1.40719e-30 	0 	
0.835 7.28803e-14 	0 	0 	
0.845 8.87238e-14 	0 	0 	
0.855 3.16866e-15 	0 	0 	
0.865 8.55547e-14 	0 	0 	
0.875 1.58434e-14 	0 	0 	
0.885 2.53494e-14 	0 	0 	
0.895 -4.11932e-14 	0 	0 	
0.905 5.70366e-14 	0 	0 	
0.915 9.50612e-15 	0 	0 	
0.925 -1.55266e-13 	0 	0 	
0.935 6.3374e-14 	0 	0 	
0.945 4.75306e-14 	0 	0 	
0.955 -8.87233e-14 	0 	0 	
0.965 -4.75307e-14 	0 	0 	
0.975 -1.90122e-14 	0 	0 	
0.985 -2.53497e-14 	0 	0 	
0.995 -9.50609e-15 	0 	0 	
