0.005 7.34773e-14 	0 	0 	
0.015 2.93906e-14 	0 	0 	
0.025 8.81725e-14 	0 	0 	
0.035 -1.46957e-14 	0 	0 	
0.045 -4.40863e-14 	0 	0 	
0.055 -1.46955e-14 	0 	0 	
0.065 -7.34773e-14 	0 	0 	
0.075 2.93907e-14 	0 	0 	
0.085 -7.34772e-14 	0 	0 	
0.095 7.34771e-14 	0 	0 	
0.105 -2.93908e-14 	0 	0 	
0.115 -4.40865e-14 	0 	0 	
0.125 1.6165e-13 	0 	0 	
0.135 1.91041e-13 	0 	0 	
0.145 1.76345e-13 	0 	0 	
0.155 2.64518e-13 	0 	0 	
0.165 1.76345e-13 	0 	0 	
0.175 1.76345e-13 	0 	0 	
0.185 1.91041e-13 	0 	0 	
0.195 1.46954e-13 	0 	0 	
0.205 -4.40863e-14 	0 	0 	
0.215 -2.9391e-14 	0 	0 	
0.225 -1.6165e-13 	0 	0 	
0.235 -1.32259e-13 	0 	0 	
0.245 -1.32259e-13 	0 	0 	
0.255 -1.76345e-13 	0 	0 	
0.265 -3.37995e-13 	0 	0 	
0.275 -1.17564e-13 	0 	0 	
0.285 -7.3477e-14 	0 	0 	
0.295 -1.17564e-13 	0 	0 	
0.305 1.98388e-12 	0 	0 	
0.315 7.20502e-10 	0 	0 	
0.325 1.04841e-07 	0 	0 	
0.335 7.20155e-06 	0 	0 	
0.345 0.000260544 	0 	0 	
0.355 0.00532721 	0 	0 	
0.365 0.0645252 	0 	0 	
0.375 0.47948 	0 	0 	
0.385 2.27053 	0 	0 	
0.395 7.26231 	0 	0 	
0.405 17.0012 	0 	0 	
0.415 31.6786 	0 	0 	
0.425 50.3278 	0 	0 	
0.435 71.4893 	0 	0 	
0.445 93.3351 	0 	0 	
0.455 112.972 	0 	0 	
0.465 125.806 	0 	0 	
0.475 129.872 	0 	0 	
0.485 130.205 	0 	0 	
0.495 130.18 	0 	0 	
0.505 130.156 	0 	0 	
0.515 130.138 	0 	0 	
0.525 130.123 	0 	0 	
0.535 130.109 	0 	0 	
0.545 130.096 	0 	0 	
0.555 130.083 	0 	0 	
0.565 130.069 	0 	0 	
0.575 130.044 	0 	0 	
0.585 129.9 	0 	0 	
0.595 128.778 	0 	0 	
0.605 121.885 	0 	0 	
0.615 91.7989 	0 	0 	
0.625 29.5571 	0 	0 	
0.635 2.62585 	0 	0 	
0.645 0.126279 	0 	0 	
0.655 0.004096 	0 	0 	
0.665 8.33639e-05 	0 	0 	
0.675 9.57888e-07 	0 	0 	
0.685 5.43708e-09 	0 	0 	
0.695 1.25426e-11 	0 	0 	
0.705 -8.81727e-14 	0 	0 	
0.715 -9.91939e-14 	0 	0 	
0.725 -4.40863e-14 	0 	0 	
0.735 -9.91939e-14 	0 	0 	
0.745 -5.51079e-14 	0 	0 	
0.755 -1.10216e-13 	0 	0 	
0.765 -1.54302e-13 	0 	0 	
0.775 -9.91943e-14 	0 	0 	
0.785 -1.65324e-13 	0 	0 	
0.795 -1.43281e-13 	0 	0 	
0.805 -2.20432e-14 	0 	0 	
0.815 -2.20432e-14 	0 	0 	
0.825 -4.40863e-14 	0 	0 	
0.835 -3.30647e-14 	0 	0 	
0.845 5.51078e-14 	0 	0 	
0.855 5.51078e-14 	0 	0 	
0.865 1.21237e-13 	0 	0 	
0.875 6.61294e-14 	0 	0 	
0.885 1.10216e-14 	0 	0 	
0.895 4.40863e-14 	0 	0 	
0.905 -2.20431e-14 	0 	0 	
0.915 -2.50027e-20 	0 	0 	
0.925 6.61295e-14 	0 	0 	
0.935 3.30647e-14 	0 	0 	
0.945 3.30647e-14 	0 	0 	
0.955 8.81726e-14 	0 	0 	
0.965 1.21237e-13 	0 	0 	
0.975 1.10216e-14 	0 	0 	
0.985 -1.10212e-14 	0 	0 	
0.995 5.51078e-14 	0 	0 	
