0.005 3.29471e-14 	0 	0 	
0.015 5.72243e-14 	0 	0 	
0.025 -8.67025e-15 	0 	0 	
0.035 1.21384e-14 	0 	0 	
0.045 1.38722e-14 	0 	0 	
0.055 -1.90747e-14 	0 	0 	
0.065 4.68195e-14 	0 	0 	
0.075 4.97903e-20 	0 	0 	
0.085 -5.37559e-14 	1.01072e-29 	0 	
0.095 -3.46813e-14 	0 	0 	
0.105 6.76284e-14 	0 	0 	
0.115 -3.81494e-14 	-5.05362e-30 	0 	
0.125 3.46812e-14 	4.81299e-30 	0 	
0.135 8.15007e-14 	0 	0 	
0.145 -6.58946e-14 	0 	0 	
0.155 6.58945e-14 	0 	0 	
0.165 -2.93826e-24 	0 	0 	
0.175 -3.46811e-14 	0 	0 	
0.185 6.93646e-15 	0 	0 	
0.195 5.7224e-14 	0 	0 	
0.205 -6.58944e-14 	0 	0 	
0.215 -1.90747e-14 	0 	0 	
0.225 2.60109e-14 	0 	0 	
0.235 2.08087e-14 	0 	0 	
0.245 7.97669e-14 	0 	0 	
0.255 -8.4969e-14 	0 	0 	
0.265 -7.97666e-14 	0 	0 	
0.275 2.6011e-14 	0 	0 	
0.285 -2.08088e-14 	0 	0 	
0.295 6.93625e-14 	0 	0 	
0.305 3.12132e-14 	0 	0 	
0.315 8.3235e-14 	0 	0 	
0.325 -1.73404e-14 	0 	0 	
0.335 -1.21384e-14 	0 	0 	
0.345 -1.16182e-13 	0 	0 	
0.355 -1.16182e-13 	0 	0 	
0.365 -2.2543e-14 	0 	0 	
0.375 -2.60109e-14 	0 	0 	
0.385 8.07734e-10 	0 	0 	
0.395 7.8995e-06 	0 	0 	
0.405 0.00205154 	0 	0 	
0.415 0.0982446 	0 	0 	
0.425 1.40476 	0 	0 	
0.435 8.10468 	0 	0 	
0.445 24.9319 	0 	0 	
0.455 51.832 	0 	0 	
0.465 84.5769 	0 	0 	
0.475 114.948 	0 	0 	
0.485 129.104 	0 	0 	
0.495 130.208 	0 	0 	
0.505 130.169 	0 	0 	
0.515 130.135 	0 	0 	
0.525 130.106 	0 	0 	
0.535 130.072 	0 	0 	
0.545 129.912 	0 	0 	
0.555 130.614 	0 	0 	
0.565 115.381 	0 	0 	
0.575 53.7059 	0 	0 	
0.585 2.4042 	0 	0 	
0.595 0.0266496 	0 	0 	
0.605 6.51176e-05 	0 	0 	
0.615 4.46252e-09 	0 	0 	
0.625 -9.75413e-14 	0 	0 	
0.635 -1.69071e-14 	0 	0 	
0.645 5.2022e-14 	0 	0 	
0.655 -6.11259e-14 	0 	0 	
0.665 -5.46229e-14 	0 	0 	
0.675 -1.23552e-13 	0 	0 	
0.685 1.10546e-13 	0 	0 	
0.695 7.28303e-14 	0 	0 	
0.705 1.01443e-13 	0 	0 	
0.715 2.99126e-14 	0 	0 	
0.725 2.60111e-14 	0 	0 	
0.735 -2.34098e-14 	0 	0 	
0.745 -3.12134e-14 	0 	0 	
0.755 -5.7224e-14 	0 	0 	
0.765 -5.2022e-14 	0 	0 	
0.775 -1.36557e-13 	0 	0 	
0.785 -1.0404e-14 	0 	0 	
0.795 9.75409e-14 	0 	0 	
0.805 2.60108e-15 	0 	0 	
0.815 -6.24264e-14 	0 	0 	
0.825 6.50273e-15 	0 	0 	
0.835 1.72973e-13 	0 	0 	
0.845 -2.08087e-14 	0 	0 	
0.855 -7.80347e-15 	0 	0 	
0.865 1.22251e-13 	0 	0 	
0.875 5.20216e-14 	0 	0 	
0.885 7.80325e-14 	0 	0 	
0.895 3.12131e-14 	0 	0 	
0.905 -7.15298e-14 	0 	0 	
0.915 7.80324e-15 	0 	0 	
0.925 1.95082e-14 	0 	0 	
0.935 4.42182e-14 	0 	0 	
0.945 1.4306e-14 	0 	0 	
0.955 -3.25134e-14 	0 	0 	
0.965 3.25139e-14 	0 	0 	
0.975 -4.5519e-14 	0 	0 	
0.985 1.76294e-24 	0 	0 	
0.995 -4.81204e-14 	0 	0 	
