0.005 0 	0 	0 	
0.015 0 	0 	0 	
0.025 0 	0 	0 	
0.035 0 	0 	0 	
0.045 0 	0 	0 	
0.055 0 	0 	0 	
0.065 0 	0 	0 	
0.075 0 	0 	0 	
0.085 0 	0 	0 	
0.095 0 	0 	0 	
0.105 0 	0 	0 	
0.115 0 	0 	0 	
0.125 5.87817e-15 	0 	0 	
0.135 5.87818e-15 	0 	0 	
0.145 -5.87817e-15 	-3.26305e-31 	0 	
0.155 -1.17564e-14 	0 	0 	
0.165 -1.76345e-14 	0 	0 	
0.175 -1.46955e-14 	0 	0 	
0.185 2.93905e-15 	0 	0 	
0.195 1.46954e-14 	0 	0 	
0.205 1.46954e-14 	0 	0 	
0.215 5.87818e-15 	0 	0 	
0.225 -2.93907e-15 	0 	0 	
0.235 -5.87815e-15 	6.52609e-31 	0 	
0.245 -5.87815e-15 	0 	0 	
0.255 2.49999e-20 	0 	0 	
0.265 8.81727e-15 	0 	0 	
0.275 5.87818e-15 	0 	0 	
0.285 0 	0 	0 	
0.295 0 	0 	0 	
0.305 0 	0 	0 	
0.315 0 	0 	0 	
0.325 5.87817e-15 	0 	0 	
0.335 5.87818e-15 	0 	0 	
0.345 -5.87817e-15 	0 	0 	
0.355 -5.87818e-15 	0 	0 	
0.365 0 	0 	0 	
0.375 0 	0 	0 	
0.385 -2.93907e-15 	0 	0 	
0.395 -8.81722e-15 	0 	0 	
0.405 -2.93905e-15 	0 	0 	
0.415 6.6938e-07 	0 	0 	
0.425 3.299e-05 	0 	0 	
0.435 0.000745824 	0 	0 	
0.445 0.0104801 	0 	0 	
0.455 0.102865 	0 	0 	
0.465 0.737064 	0 	0 	
0.475 3.94802 	0 	0 	
0.485 16.4122 	0 	0 	
0.495 45.1122 	0 	0 	
0.505 62.3912 	0 	0 	
0.515 41.1128 	0 	0 	
0.525 12.9961 	0 	0 	
0.535 2.59263 	0 	0 	
0.545 0.354782 	0 	0 	
0.555 0.0348904 	0 	0 	
0.565 0.00240388 	0 	0 	
0.575 0.000103243 	0 	0 	
0.585 2.03415e-06 	0 	0 	
0.595 4.40863e-15 	0 	0 	
0.605 -4.40862e-15 	0 	0 	
0.615 -4.40863e-15 	0 	0 	
0.625 3.91565e-30 	0 	0 	
0.635 -4.40862e-15 	0 	0 	
0.645 -1.09051e-25 	0 	0 	
0.655 2.2043e-15 	0 	0 	
0.665 -1.54302e-14 	0 	0 	
0.675 -1.98389e-14 	0 	0 	
0.685 -2.20433e-15 	0 	0 	
0.695 1.76345e-14 	0 	0 	
0.705 2.20431e-14 	0 	0 	
0.715 8.81725e-15 	0 	0 	
0.725 0 	0 	0 	
0.735 0 	0 	0 	
0.745 0 	0 	0 	
0.755 0 	0 	0 	
0.765 0 	0 	0 	
0.775 0 	0 	0 	
0.785 -4.40862e-15 	0 	0 	
0.795 -8.81725e-15 	0 	0 	
0.805 -1.08855e-25 	0 	0 	
0.815 8.81725e-15 	-4.89455e-31 	0 	
0.825 4.40863e-15 	0 	0 	
0.835 0 	0 	0 	
0.845 0 	0 	0 	
0.855 -2.20431e-15 	0 	0 	
0.865 -6.61294e-15 	0 	0 	
0.875 -2.20432e-15 	0 	0 	
0.885 6.61293e-15 	0 	0 	
0.895 4.40863e-15 	0 	0 	
0.905 0 	0 	0 	
0.915 -6.61295e-15 	0 	0 	
0.925 -1.32259e-14 	0 	0 	
0.935 -2.20433e-15 	0 	0 	
0.945 1.10216e-14 	0 	0 	
0.955 8.81726e-15 	0 	0 	
0.965 2.20432e-15 	0 	0 	
0.975 0 	0 	0 	
0.985 0 	0 	0 	
0.995 0 	0 	0 	
