0.005 -1.05807e-13 	0 	0 	
0.015 -1.76345e-13 	0 	0 	
0.025 -1.41076e-13 	0 	0 	
0.035 -1.41076e-13 	0 	0 	
0.045 -3.5269e-14 	0 	0 	
0.055 1.05807e-13 	0 	0 	
0.065 3.9478e-24 	0 	0 	
0.075 -1.05807e-13 	0 	0 	
0.085 -7.05379e-14 	0 	0 	
0.095 -1.41076e-13 	0 	0 	
0.105 2.11614e-13 	0 	0 	
0.115 2.63305e-24 	0 	0 	
0.125 3.5269e-14 	-7.34184e-31 	0 	
0.135 -1.76345e-13 	0 	0 	
0.145 -9.2137e-24 	0 	0 	
0.155 1.05807e-13 	0 	0 	
0.165 7.05381e-14 	0 	0 	
0.175 -3.17421e-13 	-1.7131e-30 	0 	
0.185 -7.05381e-14 	-1.7131e-30 	0 	
0.195 1.05807e-13 	0 	0 	
0.205 -1.41076e-13 	0 	0 	
0.215 1.41076e-13 	0 	0 	
0.225 1.05807e-13 	0 	0 	
0.235 -2.11614e-13 	0 	0 	
0.245 -1.05807e-13 	0 	0 	
0.255 5.25789e-24 	-1.7131e-30 	0 	
0.265 3.52691e-14 	-1.95783e-30 	0 	
0.275 -3.94342e-24 	0 	0 	
0.285 -1.05807e-13 	0 	0 	
0.295 7.05381e-14 	0 	0 	
0.305 -3.93992e-24 	0 	0 	
0.315 -1.41076e-13 	0 	0 	
0.325 7.0538e-14 	0 	0 	
0.335 -7.0538e-14 	0 	0 	
0.345 3.5269e-14 	0 	0 	
0.355 3.5269e-14 	-1.7131e-30 	0 	
0.365 -3.5269e-14 	0 	0 	
0.375 1.76345e-13 	0 	0 	
0.385 3.5269e-14 	0 	0 	
0.395 1.76345e-13 	0 	0 	
0.405 -1.76345e-13 	0 	0 	
0.415 2.11614e-13 	1.7131e-30 	0 	
0.425 1.41076e-13 	1.46837e-30 	0 	
0.435 7.0538e-14 	-8.56548e-31 	0 	
0.445 -3.5269e-14 	1.46837e-30 	0 	
0.455 -2.62184e-24 	0 	0 	
0.465 0.271261 	0 	0 	
0.475 10.4367 	0 	0 	
0.485 56.3804 	4.29764e-31 	0 	
0.495 121.241 	5.33797e-31 	0 	
0.505 130.166 	-1.94865e-31 	0 	
0.515 128.789 	0 	0 	
0.525 86.875 	0 	0 	
0.535 2.4387 	0 	0 	
0.545 7.93555e-14 	0 	0 	
0.555 -5.29035e-14 	0 	0 	
0.565 1.05807e-13 	0 	0 	
0.575 -2.64517e-14 	0 	0 	
0.585 5.29035e-14 	0 	0 	
0.595 -4.90592e-35 	0 	0 	
0.605 -2.38066e-13 	0 	0 	
0.615 4.90729e-24 	0 	0 	
0.625 -1.85162e-13 	0 	0 	
0.635 5.29035e-14 	0 	0 	
0.645 2.64515e-14 	0 	0 	
0.655 -2.64517e-14 	0 	0 	
0.665 -1.80579e-29 	0 	0 	
0.675 -5.29035e-14 	0 	0 	
0.685 -2.64517e-14 	0 	0 	
0.695 2.64517e-14 	0 	0 	
0.705 5.29035e-14 	0 	0 	
0.715 5.29035e-14 	0 	0 	
0.725 -1.58711e-13 	0 	0 	
0.735 2.64518e-14 	0 	0 	
0.745 -1.05807e-13 	0 	0 	
0.755 -3.91878e-24 	0 	0 	
0.765 -2.64517e-13 	0 	0 	
0.775 2.6452e-14 	0 	0 	
0.785 7.93555e-14 	0 	0 	
0.795 3.17421e-13 	0 	0 	
0.805 5.29035e-14 	0 	0 	
0.815 1.5871e-13 	0 	0 	
0.825 -2.64515e-14 	0 	0 	
0.835 -9.77941e-25 	0 	0 	
0.845 5.29035e-14 	0 	0 	
0.855 7.93552e-14 	0 	0 	
0.865 -1.32259e-13 	0 	0 	
0.875 6.84548e-24 	0 	0 	
0.885 -5.29035e-14 	0 	0 	
0.895 1.32259e-13 	0 	0 	
0.905 7.93553e-14 	0 	0 	
0.915 2.64517e-14 	0 	0 	
0.925 5.29035e-14 	0 	0 	
0.935 5.29035e-14 	0 	0 	
0.945 -5.29037e-14 	0 	0 	
0.955 7.93555e-14 	0 	0 	
0.965 -1.05807e-13 	0 	0 	
0.975 -2.11614e-13 	0 	0 	
0.985 -1.05807e-13 	0 	0 	
0.995 5.29037e-14 	0 	0 	
