0.005 -1.01986e-10 	0 	0 	
0.015 1.30262e-10 	0 	0 	
0.025 -5.9899e-11 	0 	0 	
0.035 -2.11436e-10 	0 	0 	
0.045 2.26895e-11 	0 	0 	
0.055 1.2344e-12 	0 	0 	
0.065 4.4085e-12 	0 	0 	
0.075 9.94e-11 	0 	0 	
0.085 -6.707e-11 	0 	0 	
0.095 -2.88559e-10 	0 	0 	
0.105 -1.38961e-10 	0 	0 	
0.115 1.18913e-10 	0 	0 	
0.125 -5.875e-13 	0 	0 	
0.135 -5.74885e-11 	0 	0 	
0.145 9.13468e-11 	0 	0 	
0.155 1.9692e-11 	0 	0 	
0.165 1.4813e-11 	0 	0 	
0.175 -3.1155e-12 	0 	0 	
0.185 1.20502e-10 	0 	0 	
0.195 -5.64305e-11 	0 	0 	
0.205 5.60775e-11 	0 	0 	
0.215 7.35e-12 	0 	0 	
0.225 -2.92145e-11 	0 	0 	
0.235 -5.055e-12 	0 	0 	
0.245 -2.14318e-10 	0 	0 	
0.255 -1.40077e-10 	0 	0 	
0.265 -1.17798e-10 	0 	0 	
0.275 -2.13965e-11 	0 	0 	
0.285 -1.02633e-10 	0 	0 	
0.295 8.40575e-12 	0 	0 	
0.305 9.523e-12 	0 	0 	
0.315 3.5093e-11 	0 	0 	
0.325 -6.18385e-11 	0 	0 	
0.335 1.42251e-11 	0 	0 	
0.345 -5.9955e-12 	0 	0 	
0.355 -1.62708e-10 	0 	0 	
0.365 -8.0531e-11 	0 	0 	
0.375 1.78285e-10 	0 	0 	
0.385 4.26165e-11 	0 	0 	
0.395 3.80905e-11 	0 	0 	
0.405 1.55184e-11 	0 	0 	
0.415 -5.17275e-11 	0 	0 	
0.425 8.347e-12 	0 	0 	
0.435 5.16105e-11 	0 	0 	
0.445 2.26839e-10 	0 	0 	
0.455 -1.66411e-10 	0 	0 	
0.465 7.3477e-11 	0 	0 	
0.475 -1.64647e-10 	0 	0 	
0.485 -2359.9 	0 	0 	
0.495 -4.4183e+10 	0 	0 	
0.505 2.59527e+11 	0 	0 	
0.515 1.1502e+09 	0 	0 	
0.525 3.575e-11 	0 	0 	
0.535 1.46278e-10 	0 	0 	
0.545 -6.33963e-11 	0 	0 	
0.555 -1.71804e-10 	0 	0 	
0.565 -3.8355e-12 	0 	0 	
0.575 1.08804e-10 	0 	0 	
0.585 -4.11765e-11 	0 	0 	
0.595 3.0285e-11 	0 	0 	
0.605 -1.02897e-10 	0 	0 	
0.615 -5.20658e-11 	0 	0 	
0.625 2.25986e-10 	0 	0 	
0.635 -5.18012e-11 	0 	0 	
0.645 6.39695e-11 	0 	0 	
0.655 7.98e-12 	0 	0 	
0.665 -6.2999e-11 	0 	0 	
0.675 -2.49793e-10 	0 	0 	
0.685 1.1745e-10 	0 	0 	
0.695 6.5909e-11 	0 	0 	
0.705 1.03382e-10 	0 	0 	
0.715 -9.12145e-11 	0 	0 	
0.725 4.26755e-11 	0 	0 	
0.735 1.33758e-10 	0 	0 	
0.745 -5.511e-12 	0 	0 	
0.755 1.71009e-10 	0 	0 	
0.765 -2.89471e-10 	0 	0 	
0.775 -1.72816e-10 	0 	0 	
0.785 9.5182e-11 	0 	0 	
0.795 -1.7348e-10 	0 	0 	
0.805 8.394e-11 	0 	0 	
0.815 -1.40899e-10 	0 	0 	
0.825 5.6695e-11 	0 	0 	
0.835 -1.1661e-10 	0 	0 	
0.845 1.39445e-10 	0 	0 	
0.855 -2.04164e-10 	0 	0 	
0.865 9.3595e-11 	0 	0 	
0.875 2.205e-12 	0 	0 	
0.885 -1.06732e-10 	0 	0 	
0.895 1.37064e-10 	0 	0 	
0.905 1.75507e-10 	0 	0 	
0.915 -2.16e-12 	0 	0 	
0.925 1.8287e-10 	0 	0 	
0.935 7.97085e-11 	0 	0 	
0.945 -2.33878e-10 	0 	0 	
0.955 3.29765e-11 	0 	0 	
0.965 -8.3235e-11 	0 	0 	
0.975 -9.9635e-12 	0 	0 	
0.985 8.87895e-11 	0 	0 	
0.995 -7.6181e-11 	0 	0 	
