0.005 0 	0 	0 	
0.015 0 	0 	0 	
0.025 0 	0 	0 	
0.035 0 	0 	0 	
0.045 0 	0 	0 	
0.055 5.87817e-15 	0 	0 	
0.065 5.87818e-15 	0 	0 	
0.075 -5.87817e-15 	0 	0 	
0.085 -5.87818e-15 	0 	0 	
0.095 0 	0 	0 	
0.105 0 	0 	0 	
0.115 8.81725e-15 	0 	0 	
0.125 2.05736e-14 	0 	0 	
0.135 8.81723e-15 	0 	0 	
0.145 -1.46954e-14 	-3.26305e-31 	0 	
0.155 -2.64518e-14 	0 	0 	
0.165 -3.23299e-14 	0 	0 	
0.175 -2.35127e-14 	0 	0 	
0.185 -2.50001e-20 	0 	0 	
0.195 2.05736e-14 	0 	0 	
0.205 2.64518e-14 	0 	0 	
0.215 1.17564e-14 	0 	0 	
0.225 -2.93907e-15 	0 	0 	
0.235 -5.87815e-15 	6.52609e-31 	0 	
0.245 -5.87815e-15 	0 	0 	
0.255 2.49999e-20 	0 	0 	
0.265 8.81727e-15 	0 	0 	
0.275 5.87818e-15 	0 	0 	
0.285 0 	0 	0 	
0.295 0 	0 	0 	
0.305 0 	0 	0 	
0.315 0 	0 	0 	
0.325 5.87817e-15 	0 	0 	
0.335 5.87818e-15 	0 	0 	
0.345 -5.87817e-15 	0 	0 	
0.355 -5.87818e-15 	0 	0 	
0.365 0 	0 	0 	
0.375 1.23312e-10 	0 	0 	
0.385 9.0539e-09 	0 	0 	
0.395 3.13168e-07 	0 	0 	
0.405 6.85352e-06 	0 	0 	
0.415 0.000107045 	0 	0 	
0.425 0.00126827 	0 	0 	
0.435 0.0117695 	0 	0 	
0.445 0.086925 	0 	0 	
0.455 0.513833 	0 	0 	
0.465 2.42856 	0 	0 	
0.475 9.14555 	0 	0 	
0.485 27.5508 	0 	0 	
0.495 57.695 	0 	0 	
0.505 74.106 	0 	0 	
0.515 56.42 	0 	0 	
0.525 26.1088 	0 	0 	
0.535 7.97318 	0 	0 	
0.545 1.7312 	0 	0 	
0.555 0.288697 	0 	0 	
0.565 0.0383043 	0 	0 	
0.575 0.00405558 	0 	0 	
0.585 0.000337446 	0 	0 	
0.595 2.13543e-05 	0 	0 	
0.605 9.66322e-07 	0 	0 	
0.615 2.77051e-08 	0 	0 	
0.625 3.74572e-10 	0 	0 	
0.635 -6.61295e-15 	0 	0 	
0.645 -2.20433e-15 	0 	0 	
0.655 -2.20432e-15 	0 	0 	
0.665 -1.98388e-14 	0 	0 	
0.675 -1.98388e-14 	0 	0 	
0.685 -6.61294e-15 	0 	0 	
0.695 1.98388e-14 	0 	0 	
0.705 3.5269e-14 	0 	0 	
0.715 1.54302e-14 	0 	0 	
0.725 0 	0 	0 	
0.735 0 	0 	0 	
0.745 0 	0 	0 	
0.755 0 	0 	0 	
0.765 0 	0 	0 	
0.775 0 	0 	0 	
0.785 -6.61295e-15 	0 	0 	
0.795 -1.10216e-14 	0 	0 	
0.805 2.2043e-15 	0 	0 	
0.815 1.10216e-14 	-4.89455e-31 	0 	
0.825 4.40863e-15 	0 	0 	
0.835 0 	0 	0 	
0.845 0 	0 	0 	
0.855 -6.61295e-15 	0 	0 	
0.865 -1.32259e-14 	0 	0 	
0.875 -2.20433e-15 	0 	0 	
0.885 1.10216e-14 	0 	0 	
0.895 8.81726e-15 	0 	0 	
0.905 2.20432e-15 	0 	0 	
0.915 -1.32259e-14 	0 	0 	
0.925 -2.64518e-14 	0 	0 	
0.935 -2.20433e-15 	0 	0 	
0.945 2.42475e-14 	0 	0 	
0.955 1.54302e-14 	0 	0 	
0.965 2.20432e-15 	0 	0 	
0.975 0 	0 	0 	
0.985 0 	0 	0 	
0.995 0 	0 	0 	
