0.005 5.31243e-14 	0 	0 	
0.015 -1.48614e-13 	0 	0 	
0.025 9.41449e-14 	0 	0 	
0.035 -3.22781e-14 	0 	0 	
0.045 8.47301e-14 	0 	0 	
0.055 1.81564e-14 	0 	0 	
0.065 -3.96752e-14 	0 	0 	
0.075 1.24406e-13 	0 	0 	
0.085 -7.53155e-14 	0 	0 	
0.095 -8.94375e-14 	0 	0 	
0.105 6.32112e-14 	0 	0 	
0.115 1.16336e-13 	3.73293e-30 	0 	
0.125 3.36227e-14 	0 	0 	
0.135 7.53162e-14 	0 	0 	
0.145 4.03476e-15 	0 	0 	
0.155 -5.64869e-14 	0 	0 	
0.165 5.11073e-14 	0 	0 	
0.175 8.40579e-14 	0 	0 	
0.185 -7.66609e-14 	0 	0 	
0.195 -1.00869e-14 	0 	0 	
0.205 4.23654e-14 	0 	0 	
0.215 1.29113e-13 	0 	0 	
0.225 -1.68115e-14 	0 	0 	
0.235 4.57277e-14 	0 	0 	
0.245 5.31248e-14 	0 	0 	
0.255 1.15664e-13 	0 	0 	
0.265 2.82435e-14 	0 	0 	
0.275 -7.73333e-14 	0 	0 	
0.285 -6.38842e-14 	0 	0 	
0.295 1.74841e-14 	0 	0 	
0.305 1.2777e-14 	0 	0 	
0.315 9.21275e-14 	0 	0 	
0.325 2.68987e-14 	0 	0 	
0.335 -1.27769e-14 	0 	0 	
0.345 -5.51421e-14 	0 	0 	
0.355 -4.16925e-14 	0 	0 	
0.365 1.54667e-14 	0 	0 	
0.375 -1.0087e-13 	0 	0 	
0.385 5.64865e-14 	0 	0 	
0.395 4.03479e-15 	0 	0 	
0.405 7.80057e-14 	0 	0 	
0.415 7.53158e-14 	0 	0 	
0.425 9.3662e-06 	0 	0 	
0.435 0.0109012 	0 	0 	
0.445 0.626535 	0 	0 	
0.455 7.06642 	0 	0 	
0.465 29.4657 	0 	0 	
0.475 69.3285 	0 	0 	
0.485 112.898 	0 	0 	
0.495 129.909 	0 	0 	
0.505 130.185 	0 	0 	
0.515 130.13 	0 	0 	
0.525 129.903 	0 	0 	
0.535 125.192 	0 	0 	
0.545 86.7677 	0 	0 	
0.555 10.9545 	0 	0 	
0.565 0.105097 	0 	0 	
0.575 5.45204e-05 	0 	0 	
0.585 1.4626e-14 	0 	0 	
0.595 -5.0458e-16 	0 	0 	
0.605 -2.67305e-14 	0 	0 	
0.615 -1.06921e-13 	0 	0 	
0.625 8.8147e-25 	0 	0 	
0.635 1.09443e-13 	0 	0 	
0.645 3.02607e-15 	0 	0 	
0.655 1.51305e-14 	0 	0 	
0.665 -1.56348e-14 	0 	0 	
0.675 7.06084e-14 	0 	0 	
0.685 4.58955e-14 	0 	0 	
0.695 2.0174e-15 	0 	0 	
0.705 1.12974e-13 	0 	0 	
0.715 -7.41388e-14 	0 	0 	
0.725 -4.03475e-14 	0 	0 	
0.735 2.26957e-14 	0 	0 	
0.745 1.05913e-14 	0 	0 	
0.755 5.0435e-14 	0 	0 	
0.765 1.96695e-14 	0 	0 	
0.775 -5.5478e-14 	0 	0 	
0.785 -1.73495e-13 	0 	0 	
0.795 1.21045e-14 	0 	0 	
0.805 -2.72347e-14 	0 	0 	
0.815 -8.27129e-14 	0 	0 	
0.825 -3.78263e-14 	0 	0 	
0.835 2.26955e-14 	0 	0 	
0.845 -2.52174e-14 	0 	0 	
0.855 9.17913e-14 	0 	0 	
0.865 -1.29617e-13 	0 	0 	
0.875 -1.26086e-14 	0 	0 	
0.885 4.48867e-14 	0 	0 	
0.895 6.65737e-14 	0 	0 	
0.905 7.46435e-14 	0 	0 	
0.915 1.56346e-14 	0 	0 	
0.925 -4.28695e-14 	0 	0 	
0.935 4.84171e-14 	0 	0 	
0.945 -5.79998e-14 	0 	0 	
0.955 2.52174e-14 	0 	0 	
0.965 -1.75008e-13 	0 	0 	
0.975 -7.8174e-14 	0 	0 	
0.985 -1.05913e-14 	0 	0 	
0.995 7.96868e-14 	0 	0 	
