0.005 273.175 304077
0.015 273.097 303794
0.025 273.129 303894
0.035 273.111 303824
0.045 273.149 304005
0.055 273.207 304208
0.065 273.163 304056
0.075 273.088 303759
0.085 273.166 304063
0.095 273.192 304143
0.105 273.134 303923
0.115 273.137 303944
0.125 273.136 303940
0.135 273.051 303608
0.145 273.112 303841
0.155 273.199 304209
0.165 273.139 303935
0.175 273.193 304218
0.185 273.072 303717
0.195 273.101 303796
0.205 273.25 304374
0.215 273.156 304006
0.225 273.127 303912
0.235 273.124 303901
0.245 273.182 304131
0.255 273.112 303840
0.265 273.194 304151
0.275 273.088 303738
0.285 273.14 303960
0.295 273.134 303930
0.305 273.07 303677
0.315 273.199 304181
0.325 273.178 304099
0.335 273.104 303821
0.345 273.127 303901
0.355 273.134 303965
0.365 273.096 303801
0.375 273.181 304110
0.385 273.158 304017
0.395 273.146 303964
0.405 272.971 303282
0.415 273.259 304435
0.425 273.139 303938
0.435 0.001 2876.99
0.445 8762.38 8.76273e+06
0.455 0.00100023 2876.99
0.465 0.001 2876.99
0.475 0.001 2876.99
0.485 3762.38 3.76417e+06
0.495 0.001 2876.99
0.505 3762.38 3.76417e+06
0.515 0.001 2876.99
0.525 0.001 2876.99
0.535 0.001 2876.99
0.545 0.001 2876.99
0.555 0.001 2876.99
0.565 0.001 2876.99
0.575 273.217 101423
0.585 273.159 101337
0.595 273.117 101287
0.605 273.091 101248
0.615 273.154 101348
0.625 273.227 101431
0.635 273.179 101381
0.645 273.066 101217
0.655 273.165 101348
0.665 273.11 101283
0.675 273.234 101439
0.685 273.207 101410
0.695 273.098 101258
0.705 273.174 101357
0.715 273.042 101185
0.725 273.238 101455
0.735 273.224 101444
0.745 273.114 101289
0.755 273.17 101355
0.765 273.206 101399
0.775 273.149 101330
0.785 273.064 101245
0.795 273.179 101406
0.805 273.027 101194
0.815 273.26 101476
0.825 273.118 101287
0.835 273.161 101353
0.845 273.146 101359
0.855 273.049 101198
0.865 273.19 101378
0.875 273.038 101218
0.885 273.092 101251
0.895 273.1 101277
0.905 273.198 101406
0.915 273.099 101289
0.925 273.282 101501
0.935 273.16 101347
0.945 273.194 101389
0.955 273.115 101282
0.965 273.178 101367
0.975 273.154 101331
0.985 273.099 101269
0.995 273.143 101321
