0.005 2.35127e-14 	0 	0 	
0.015 9.4051e-14 	0 	0 	
0.025 2.35127e-14 	0 	0 	
0.035 2.35127e-14 	0 	0 	
0.045 2.35127e-14 	0 	0 	
0.055 5.84869e-25 	0 	0 	
0.065 -4.70255e-14 	0 	0 	
0.075 1.17563e-13 	0 	0 	
0.085 2.3513e-14 	0 	0 	
0.095 4.70253e-14 	0 	0 	
0.105 -4.70255e-14 	0 	0 	
0.115 -1.75541e-24 	0 	0 	
0.125 -2.3513e-14 	0 	0 	
0.135 2.35127e-14 	0 	0 	
0.145 7.05383e-14 	0 	0 	
0.155 2.35125e-14 	0 	0 	
0.165 4.70254e-14 	0 	0 	
0.175 -4.70253e-14 	0 	0 	
0.185 4.70254e-14 	0 	0 	
0.195 -9.4051e-14 	0 	0 	
0.205 1.41076e-13 	6.52609e-31 	0 	
0.215 1.41076e-13 	0 	0 	
0.225 -2.35127e-14 	0 	0 	
0.235 7.05381e-14 	0 	0 	
0.245 -4.70253e-14 	0 	0 	
0.255 4.70253e-14 	0 	0 	
0.265 7.05383e-14 	0 	0 	
0.275 -1.29722e-40 	0 	0 	
0.285 2.35125e-14 	0 	0 	
0.295 -1.16739e-24 	0 	0 	
0.305 -2.35127e-14 	0 	0 	
0.315 4.70253e-14 	0 	0 	
0.325 2.35127e-14 	0 	0 	
0.335 -5.83689e-25 	0 	0 	
0.345 9.40508e-14 	0 	0 	
0.355 7.05381e-14 	0 	0 	
0.365 -2.3327e-24 	0 	0 	
0.375 1.04417e-29 	0 	0 	
0.385 2.35125e-14 	0 	0 	
0.395 4.70254e-14 	0 	0 	
0.405 -1.41076e-13 	0 	0 	
0.415 2.3513e-14 	0 	0 	
0.425 4.70254e-14 	0 	0 	
0.435 2.3513e-14 	0 	0 	
0.445 -2.35126e-14 	0 	0 	
0.455 -7.0538e-14 	0 	0 	
0.465 -7.05383e-14 	0 	0 	
0.475 -9.40508e-14 	0 	0 	
0.485 2.29673 	0 	0 	
0.495 50.8588 	0 	0 	
0.505 107.756 	-3.27305e-31 	0 	
0.515 10.4703 	6.99298e-31 	0 	
0.525 3.5269e-14 	-4.89455e-31 	0 	
0.535 3.5269e-14 	-2.44728e-31 	0 	
0.545 -3.5269e-14 	-2.44728e-31 	0 	
0.555 4.36985e-25 	0 	0 	
0.565 -1.76345e-14 	0 	0 	
0.575 8.81725e-14 	0 	0 	
0.585 8.81725e-14 	0 	0 	
0.595 -5.29035e-14 	0 	0 	
0.605 -4.36211e-25 	0 	0 	
0.615 5.29035e-14 	0 	0 	
0.625 -1.76345e-14 	0 	0 	
0.635 3.5269e-14 	0 	0 	
0.645 5.29035e-14 	0 	0 	
0.655 3.5269e-14 	0 	0 	
0.665 1.30861e-24 	0 	0 	
0.675 -1.76345e-14 	0 	0 	
0.685 1.76345e-14 	0 	0 	
0.695 -1.76344e-14 	0 	0 	
0.705 -1.76346e-14 	0 	0 	
0.715 -3.5269e-14 	0 	0 	
0.725 -5.29035e-14 	0 	0 	
0.735 1.76345e-14 	0 	0 	
0.745 3.5269e-14 	0 	0 	
0.755 5.29035e-14 	-2.44728e-31 	0 	
0.765 1.74168e-24 	0 	0 	
0.775 -1.41076e-13 	0 	0 	
0.785 1.05807e-13 	0 	0 	
0.795 1.76345e-14 	-2.44728e-31 	0 	
0.805 5.29035e-14 	-2.44728e-31 	0 	
0.815 8.6928e-25 	0 	0 	
0.825 -5.29035e-14 	0 	0 	
0.835 8.81725e-14 	0 	0 	
0.845 3.5269e-14 	0 	0 	
0.855 -3.5269e-14 	0 	0 	
0.865 5.29035e-14 	0 	0 	
0.875 -3.5269e-14 	0 	0 	
0.885 -3.52689e-14 	0 	0 	
0.895 -4.34645e-25 	0 	0 	
0.905 7.05379e-14 	0 	0 	
0.915 -3.5269e-14 	0 	0 	
0.925 1.76345e-14 	0 	0 	
0.935 1.76345e-14 	0 	0 	
0.945 3.5269e-14 	0 	0 	
0.955 -3.5269e-14 	0 	0 	
0.965 -5.29035e-14 	0 	0 	
0.975 1.76345e-14 	0 	0 	
0.985 -7.0538e-14 	0 	0 	
0.995 7.0538e-14 	0 	0 	
