0.005 -5.45493e-14 	0 	0 	
0.015 9.2052e-14 	0 	0 	
0.025 1.70466e-14 	0 	0 	
0.035 -9.2052e-14 	0 	0 	
0.045 -2.04561e-14 	0 	0 	
0.055 4.43216e-14 	0 	0 	
0.065 3.40935e-14 	0 	0 	
0.075 8.52338e-14 	0 	0 	
0.085 -1.29555e-13 	0 	0 	
0.095 1.22736e-13 	0 	0 	
0.105 1.5683e-13 	0 	0 	
0.115 5.79589e-14 	0 	0 	
0.125 5.11401e-14 	0 	0 	
0.135 -8.86428e-14 	0 	0 	
0.145 -2.04557e-14 	0 	0 	
0.155 2.72748e-14 	0 	0 	
0.165 1.0228e-13 	0 	0 	
0.175 1.7047e-14 	0 	0 	
0.185 1.22736e-13 	-8.04339e-30 	0 	
0.195 1.36374e-14 	0 	0 	
0.205 1.29555e-13 	0 	0 	
0.215 1.5342e-13 	0 	0 	
0.225 1.70467e-13 	0 	0 	
0.235 3.00022e-13 	0 	0 	
0.245 1.97741e-13 	0 	0 	
0.255 1.12508e-13 	-8.51654e-30 	0 	
0.265 5.45496e-14 	-4.13999e-30 	0 	
0.275 1.70465e-14 	0 	0 	
0.285 1.32965e-13 	0 	0 	
0.295 6.13679e-14 	0 	0 	
0.305 -1.12508e-13 	0 	0 	
0.315 1.44692e-11 	0 	0 	
0.325 1.13973e-08 	0 	0 	
0.335 2.10053e-06 	0 	0 	
0.345 0.000140488 	0 	0 	
0.355 0.004354 	-3.78516e-30 	0 	
0.365 0.068713 	0 	0 	
0.375 0.580775 	0 	0 	
0.385 2.85154 	0 	0 	
0.395 8.9735 	0 	0 	
0.405 20.2764 	0 	0 	
0.415 36.4041 	0 	0 	
0.425 56.0194 	0 	0 	
0.435 77.5599 	0 	0 	
0.445 99.1165 	0 	0 	
0.455 117.447 	0 	0 	
0.465 127.767 	0 	0 	
0.475 130.105 	0 	0 	
0.485 130.192 	0 	0 	
0.495 130.166 	7.13936e-31 	0 	
0.505 130.145 	0 	0 	
0.515 130.129 	0 	0 	
0.525 130.115 	0 	0 	
0.535 130.101 	0 	0 	
0.545 130.086 	0 	0 	
0.555 130.067 	0 	0 	
0.565 130.043 	0 	0 	
0.575 129.998 	0 	0 	
0.585 129.933 	0 	0 	
0.595 128.35 	0 	0 	
0.605 101.075 	0 	0 	
0.615 -274.71 	0 	0 	
0.625 47.7766 	0 	0 	
0.635 4.79525 	0 	0 	
0.645 0.145121 	0 	0 	
0.655 0.00271032 	0 	0 	
0.665 2.74133e-05 	0 	0 	
0.675 1.09885e-07 	0 	0 	
0.685 1.09302e-10 	0 	0 	
0.695 2.55701e-14 	0 	0 	
0.705 1.81547e-13 	0 	0 	
0.715 -7.67085e-15 	0 	0 	
0.725 6.3925e-14 	0 	0 	
0.735 -5.11401e-14 	0 	0 	
0.745 4.60261e-14 	0 	0 	
0.755 1.25293e-13 	0 	0 	
0.765 -7.67099e-15 	0 	0 	
0.775 1.2785e-14 	0 	0 	
0.785 5.11437e-15 	0 	0 	
0.795 7.67105e-15 	0 	0 	
0.805 -3.06841e-14 	0 	0 	
0.815 2.55705e-14 	0 	0 	
0.825 5.11402e-14 	0 	0 	
0.835 2.8127e-14 	0 	0 	
0.845 7.67101e-15 	0 	0 	
0.855 -6.3925e-14 	0 	0 	
0.865 -1.53418e-14 	0 	0 	
0.875 -3.83548e-14 	0 	0 	
0.885 -1.12508e-13 	0 	0 	
0.895 3.83549e-14 	0 	0 	
0.905 8.6938e-14 	0 	0 	
0.915 -3.0684e-14 	0 	0 	
0.925 5.47807e-24 	0 	0 	
0.935 6.9039e-14 	0 	0 	
0.945 2.557e-14 	0 	0 	
0.955 3.32411e-14 	0 	0 	
0.965 2.557e-15 	0 	0 	
0.975 -6.3925e-14 	0 	0 	
0.985 2.81271e-14 	0 	0 	
0.995 6.9039e-14 	0 	0 	
