0.005 4.90141e-14 	0 	0 	
0.015 8.22944e-14 	0 	0 	
0.025 9.99288e-14 	0 	0 	
0.035 9.11115e-14 	0 	0 	
0.045 3.52689e-14 	0 	0 	
0.055 -2.35127e-14 	0 	0 	
0.065 -2.64518e-14 	0 	0 	
0.075 -8.81728e-15 	0 	0 	
0.085 -5.8782e-15 	0 	0 	
0.095 5.87815e-15 	0 	0 	
0.105 1.46954e-14 	0 	0 	
0.115 1.46274e-25 	0 	0 	
0.125 -3.82081e-14 	0 	0 	
0.135 -9.99289e-14 	0 	0 	
0.145 -1.52832e-13 	-1.46837e-30 	0 	
0.155 -1.6165e-13 	1.30522e-30 	0 	
0.165 -1.38137e-13 	0 	0 	
0.175 -1.11685e-13 	0 	0 	
0.185 -6.17207e-14 	0 	0 	
0.195 2.05736e-14 	0 	0 	
0.205 6.46599e-14 	0 	0 	
0.215 5.87817e-14 	0 	0 	
0.225 7.3477e-14 	0 	0 	
0.235 8.81724e-14 	4.56826e-30 	0 	
0.245 5.58425e-14 	6.52609e-31 	0 	
0.255 1.76345e-14 	0 	0 	
0.265 2.93908e-15 	0 	0 	
0.275 0 	0 	0 	
0.285 0 	0 	0 	
0.295 1.76345e-14 	0 	0 	
0.305 3.52691e-14 	0 	0 	
0.315 2.64518e-14 	0 	0 	
0.325 2.64517e-14 	0 	0 	
0.335 1.46954e-14 	0 	0 	
0.345 -2.35127e-14 	0 	0 	
0.355 -3.82081e-14 	0 	0 	
0.365 -3.23299e-14 	0 	0 	
0.375 -2.93908e-14 	0 	0 	
0.385 -3.23299e-14 	0 	0 	
0.395 -4.40863e-14 	0 	0 	
0.405 -4.11472e-14 	0 	0 	
0.415 2.93905e-15 	0 	0 	
0.425 0.346865 	0 	0 	
0.435 5.3216 	0 	0 	
0.445 21.5297 	0 	0 	
0.455 48.5419 	0 	0 	
0.465 79.2797 	0 	0 	
0.475 106.518 	0 	0 	
0.485 123.586 	0 	0 	
0.495 129.014 	0 	0 	
0.505 129.121 	0 	0 	
0.515 129.289 	0 	0 	
0.525 130.592 	0 	0 	
0.535 131.822 	0 	0 	
0.545 129.731 	0 	0 	
0.555 116.031 	0 	0 	
0.565 80.3886 	0 	0 	
0.575 34.4866 	-6.80644e-31 	0 	
0.585 6.44928 	0 	0 	
0.595 6.61295e-15 	0 	0 	
0.605 -3.5269e-14 	0 	0 	
0.615 -7.27423e-14 	0 	0 	
0.625 -7.7151e-14 	0 	0 	
0.635 -5.73122e-14 	0 	0 	
0.645 -2.20431e-14 	0 	0 	
0.655 2.20431e-15 	0 	0 	
0.665 -6.61293e-15 	0 	0 	
0.675 -2.20431e-14 	0 	0 	
0.685 -6.61293e-15 	0 	0 	
0.695 1.98388e-14 	0 	0 	
0.705 2.42475e-14 	0 	0 	
0.715 3.08604e-14 	0 	0 	
0.725 5.51078e-14 	0 	0 	
0.735 7.7151e-14 	0 	0 	
0.745 6.39251e-14 	0 	0 	
0.755 2.64518e-14 	0 	0 	
0.765 4.40863e-15 	0 	0 	
0.775 -4.40862e-15 	0 	0 	
0.785 -2.20431e-14 	0 	0 	
0.795 -2.64518e-14 	0 	0 	
0.805 2.2043e-15 	0 	0 	
0.815 2.42475e-14 	-3.91565e-30 	0 	
0.825 1.98389e-14 	0 	0 	
0.835 6.61295e-15 	0 	0 	
0.845 0 	0 	0 	
0.855 -2.20431e-15 	0 	0 	
0.865 -1.54302e-14 	0 	0 	
0.875 -2.64518e-14 	0 	0 	
0.885 -8.81726e-15 	0 	0 	
0.895 6.61296e-15 	0 	0 	
0.905 -1.54302e-14 	0 	0 	
0.915 -4.1882e-14 	0 	0 	
0.925 -3.52691e-14 	0 	0 	
0.935 -1.10216e-14 	0 	0 	
0.945 4.40862e-15 	0 	0 	
0.955 1.98388e-14 	0 	0 	
0.965 4.1882e-14 	0 	0 	
0.975 4.84949e-14 	0 	0 	
0.985 2.86561e-14 	0 	0 	
0.995 6.61295e-15 	0 	0 	
