0.005 -2.35127e-14 	0 	0 	
0.015 -4.70254e-14 	0 	0 	
0.025 2.35126e-14 	0 	0 	
0.035 -4.70254e-14 	0 	0 	
0.045 2.3513e-14 	0 	0 	
0.055 -2.35125e-14 	0 	0 	
0.065 7.05381e-14 	0 	0 	
0.075 2.35127e-14 	0 	0 	
0.085 7.05383e-14 	0 	0 	
0.095 7.05381e-14 	0 	0 	
0.105 2.35127e-14 	0 	0 	
0.115 2.35127e-14 	0 	0 	
0.125 7.05381e-14 	0 	0 	
0.135 1.17563e-13 	0 	0 	
0.145 4.70255e-14 	0 	0 	
0.155 -4.70254e-14 	0 	0 	
0.165 -7.05381e-14 	0 	0 	
0.175 -1.16945e-24 	0 	0 	
0.185 -7.05381e-14 	0 	0 	
0.195 -2.35126e-14 	0 	0 	
0.205 2.35127e-14 	5.87348e-30 	0 	
0.215 9.40507e-14 	0 	0 	
0.225 4.09132e-24 	0 	0 	
0.235 2.35126e-14 	0 	0 	
0.245 -9.40507e-14 	0 	0 	
0.255 -2.35127e-14 	0 	0 	
0.265 -2.11614e-13 	0 	0 	
0.275 -4.70255e-14 	0 	0 	
0.285 -1.41076e-13 	0 	0 	
0.295 -2.35127e-14 	0 	0 	
0.305 -4.70254e-14 	0 	0 	
0.315 2.35126e-14 	0 	0 	
0.325 4.70253e-14 	0 	0 	
0.335 -2.35127e-14 	0 	0 	
0.345 3.00962e-12 	0 	0 	
0.355 1.34586e-09 	0 	0 	
0.365 2.21587e-07 	0 	0 	
0.375 1.65257e-05 	0 	0 	
0.385 0.000630133 	0 	0 	
0.395 0.0132161 	0 	0 	
0.405 0.159505 	0 	0 	
0.415 1.14479 	0 	0 	
0.425 5.10143 	0 	0 	
0.435 15.191 	0 	0 	
0.445 33.2588 	0 	0 	
0.455 58.4739 	0 	0 	
0.465 87.634 	0 	0 	
0.475 114.261 	0 	0 	
0.485 128.227 	0 	0 	
0.495 130.216 	0 	0 	
0.505 130.195 	-4.94182e-31 	0 	
0.515 130.159 	8.90763e-31 	0 	
0.525 130.127 	-1.75248e-30 	0 	
0.535 130.085 	-8.23825e-31 	0 	
0.545 129.873 	-8.45551e-31 	0 	
0.555 128.08 	0 	0 	
0.565 117.571 	0 	0 	
0.575 80.1607 	5.7147e-31 	0 	
0.585 23.644 	0 	0 	
0.595 2.50322 	0 	0 	
0.605 0.147275 	0 	0 	
0.615 0.00539694 	0 	0 	
0.625 0.000115941 	0 	0 	
0.635 1.32751e-06 	0 	0 	
0.645 7.07109e-09 	0 	0 	
0.655 1.41076e-11 	0 	0 	
0.665 8.81725e-14 	0 	0 	
0.675 3.5269e-14 	0 	0 	
0.685 5.29035e-14 	0 	0 	
0.695 -7.0538e-14 	0 	0 	
0.705 5.29035e-14 	0 	0 	
0.715 1.76344e-14 	0 	0 	
0.725 1.76345e-14 	0 	0 	
0.735 -1.05807e-13 	0 	0 	
0.745 -3.5269e-14 	0 	0 	
0.755 -5.29035e-14 	-2.20255e-30 	0 	
0.765 -3.5269e-14 	0 	0 	
0.775 -1.76345e-14 	0 	0 	
0.785 8.81725e-14 	0 	0 	
0.795 3.5269e-14 	-2.20255e-30 	0 	
0.805 7.0538e-14 	-2.20255e-30 	0 	
0.815 7.0538e-14 	0 	0 	
0.825 -1.30392e-24 	0 	0 	
0.835 -5.29035e-14 	0 	0 	
0.845 1.76345e-14 	0 	0 	
0.855 1.76346e-14 	0 	0 	
0.865 8.81725e-14 	0 	0 	
0.875 5.29035e-14 	0 	0 	
0.885 8.81725e-14 	0 	0 	
0.895 1.76345e-14 	0 	0 	
0.905 7.0538e-14 	0 	0 	
0.915 5.29035e-14 	0 	0 	
0.925 -7.0538e-14 	0 	0 	
0.935 -8.81725e-14 	0 	0 	
0.945 -1.73541e-24 	0 	0 	
0.955 5.29035e-14 	0 	0 	
0.965 3.5269e-14 	0 	0 	
0.975 7.0538e-14 	0 	0 	
0.985 5.29035e-14 	0 	0 	
0.995 7.8313e-30 	0 	0 	
