0.005 -3.0281e-29 	0 	0 	
0.015 -5.45495e-14 	0 	0 	
0.025 3.40935e-14 	0 	0 	
0.035 -9.20524e-14 	0 	0 	
0.045 -1.39783e-13 	0 	0 	
0.055 -6.81865e-14 	0 	0 	
0.065 2.72749e-14 	0 	0 	
0.075 1.49993e-19 	0 	0 	
0.085 -5.11404e-14 	0 	0 	
0.095 8.86427e-14 	0 	0 	
0.105 1.26145e-13 	0 	0 	
0.115 9.54614e-14 	0 	0 	
0.125 5.11401e-14 	0 	0 	
0.135 -1.0228e-13 	0 	0 	
0.145 4.43216e-14 	0 	0 	
0.155 -1.0228e-14 	0 	0 	
0.165 -9.54614e-14 	0 	0 	
0.175 1.7047e-14 	0 	0 	
0.185 2.38654e-14 	-5.20455e-30 	0 	
0.195 7.15963e-14 	0 	0 	
0.205 -1.36375e-14 	0 	0 	
0.215 8.86426e-14 	0 	0 	
0.225 1.70465e-14 	0 	0 	
0.235 6.81869e-14 	0 	0 	
0.245 1.5683e-13 	0 	0 	
0.255 -2.38656e-14 	-4.73142e-30 	0 	
0.265 1.43192e-13 	-2.36571e-30 	0 	
0.275 5.11401e-14 	0 	0 	
0.285 2.01151e-13 	0 	0 	
0.295 -4.09122e-14 	0 	0 	
0.305 -6.8187e-15 	0 	0 	
0.315 -3.4094e-15 	0 	0 	
0.325 1.70465e-14 	0 	0 	
0.335 -3.0684e-14 	0 	0 	
0.345 1.60239e-13 	0 	0 	
0.355 -1.12508e-13 	-2.12913e-30 	0 	
0.365 3.40934e-14 	0 	0 	
0.375 -3.40932e-14 	0 	0 	
0.385 3.8358e-09 	0 	0 	
0.395 1.2904e-05 	0 	0 	
0.405 0.00256852 	0 	0 	
0.415 0.109777 	0 	0 	
0.425 1.47069 	0 	0 	
0.435 8.22168 	0 	0 	
0.445 24.9934 	0 	0 	
0.455 51.7901 	0 	0 	
0.465 84.4271 	0 	0 	
0.475 114.734 	0 	0 	
0.485 129.03 	0 	0 	
0.495 130.209 	7.1479e-31 	0 	
0.505 130.171 	0 	0 	
0.515 130.138 	0 	0 	
0.525 130.11 	0 	0 	
0.535 130.08 	0 	0 	
0.545 129.944 	0 	0 	
0.555 129.354 	0 	0 	
0.565 116.886 	0 	0 	
0.575 49.1455 	0 	0 	
0.585 2.69519 	0 	0 	
0.595 0.0335207 	0 	0 	
0.605 0.000108378 	0 	0 	
0.615 2.24813e-08 	0 	0 	
0.625 -7.67097e-14 	0 	0 	
0.635 2.3013e-14 	0 	0 	
0.645 1.38078e-13 	0 	0 	
0.655 -4.3469e-14 	0 	0 	
0.665 2.55735e-15 	0 	0 	
0.675 1.2785e-14 	0 	0 	
0.685 -5.3697e-14 	0 	0 	
0.695 -1.30407e-13 	0 	0 	
0.705 2.55699e-15 	0 	0 	
0.715 -5.11433e-15 	0 	0 	
0.725 1.2785e-14 	0 	0 	
0.735 9.4609e-14 	0 	0 	
0.745 -4.8583e-14 	0 	0 	
0.755 6.39251e-14 	0 	0 	
0.765 4.8583e-14 	0 	0 	
0.775 -2.557e-14 	0 	0 	
0.785 -1.7899e-14 	0 	0 	
0.795 -3.83554e-14 	0 	0 	
0.805 -6.9039e-14 	0 	0 	
0.815 -6.9039e-14 	0 	0 	
0.825 1.27848e-14 	0 	0 	
0.835 6.90389e-14 	0 	0 	
0.845 7.1596e-14 	0 	0 	
0.855 3.06845e-14 	0 	0 	
0.865 -7.671e-15 	0 	0 	
0.875 -5.114e-14 	0 	0 	
0.885 5.36974e-14 	0 	0 	
0.895 3.57979e-14 	0 	0 	
0.905 -3.32411e-14 	0 	0 	
0.915 -4.6026e-14 	0 	0 	
0.925 -3.8355e-14 	0 	0 	
0.935 1.53424e-14 	0 	0 	
0.945 1.20179e-13 	0 	0 	
0.955 5.114e-14 	0 	0 	
0.965 5.114e-15 	0 	0 	
0.975 6.3925e-14 	0 	0 	
0.985 -1.07394e-13 	0 	0 	
0.995 1.15065e-13 	0 	0 	
