0.005 -2.82434e-14 	0 	0 	
0.015 9.01098e-14 	0 	0 	
0.025 2.68986e-14 	0 	0 	
0.035 3.42956e-14 	0 	0 	
0.045 1.47943e-14 	0 	0 	
0.055 -3.09333e-14 	0 	0 	
0.065 1.0087e-13 	0 	0 	
0.075 -1.3113e-13 	0 	0 	
0.085 2.42085e-14 	0 	0 	
0.095 1.07594e-14 	0 	0 	
0.105 3.56404e-14 	0 	0 	
0.115 -1.72151e-13 	2.33307e-30 	0 	
0.125 -1.68116e-14 	0 	0 	
0.135 -1.19698e-13 	0 	0 	
0.145 -8.06956e-15 	0 	0 	
0.155 -1.22388e-13 	0 	0 	
0.165 -1.61388e-14 	0 	0 	
0.175 3.3623e-15 	0 	0 	
0.185 9.81795e-14 	0 	0 	
0.195 2.55534e-14 	0 	0 	
0.205 -5.71595e-14 	0 	0 	
0.215 -9.81792e-14 	0 	0 	
0.225 -3.36234e-14 	0 	0 	
0.235 -5.19622e-29 	0 	0 	
0.245 9.41448e-15 	0 	0 	
0.255 -2.89161e-14 	0 	0 	
0.265 2.28638e-14 	0 	0 	
0.275 -2.01739e-14 	0 	0 	
0.285 -1.31803e-13 	0 	0 	
0.295 -9.21276e-14 	0 	0 	
0.305 -1.61262e-29 	0 	0 	
0.315 -5.5142e-14 	0 	0 	
0.325 3.3623e-15 	0 	0 	
0.335 2.08464e-14 	0 	0 	
0.345 3.36233e-14 	0 	0 	
0.355 -9.88521e-14 	0 	0 	
0.365 2.35048e-24 	0 	0 	
0.375 -6.72463e-14 	0 	0 	
0.385 -1.04904e-13 	0 	0 	
0.395 1.2844e-13 	0 	0 	
0.405 6.72228e-16 	0 	0 	
0.415 3.69856e-14 	0 	0 	
0.425 3.36232e-15 	0 	0 	
0.435 -2.7571e-14 	0 	0 	
0.445 -5.91766e-14 	0 	0 	
0.455 0.0187362 	0 	0 	
0.465 1.98656 	0 	0 	
0.475 21.1563 	0 	0 	
0.485 71.9913 	0 	0 	
0.495 124.979 	0 	0 	
0.505 130.18 	0 	0 	
0.515 129.269 	0 	0 	
0.525 108.464 	0 	0 	
0.535 23.14 	0 	0 	
0.545 0.132158 	0 	0 	
0.555 8.72523e-14 	0 	0 	
0.565 8.81444e-25 	0 	0 	
0.575 -6.30432e-14 	0 	0 	
0.585 2.52171e-14 	0 	0 	
0.595 -4.18611e-14 	0 	0 	
0.605 1.37687e-13 	0 	0 	
0.615 4.48869e-14 	0 	0 	
0.625 -2.52175e-14 	0 	0 	
0.635 -1.96695e-14 	0 	0 	
0.645 1.17009e-13 	0 	0 	
0.655 6.70781e-14 	0 	0 	
0.665 -1.0591e-14 	0 	0 	
0.675 -4.28693e-14 	0 	0 	
0.685 -6.20348e-14 	0 	0 	
0.695 -2.92519e-14 	0 	0 	
0.705 3.1774e-14 	0 	0 	
0.715 -2.42088e-14 	0 	0 	
0.725 7.06087e-14 	0 	0 	
0.735 2.92523e-14 	0 	0 	
0.745 4.3878e-14 	0 	0 	
0.755 9.02777e-14 	0 	0 	
0.765 -8.62433e-14 	0 	0 	
0.775 -6.80866e-14 	0 	0 	
0.785 4.84171e-14 	0 	0 	
0.795 -4.84174e-14 	0 	0 	
0.805 3.47999e-14 	0 	0 	
0.815 -5.54778e-14 	0 	0 	
0.825 6.30435e-14 	0 	0 	
0.835 -1.09443e-13 	0 	0 	
0.845 -6.60695e-14 	0 	0 	
0.855 2.06784e-14 	0 	0 	
0.865 -1.41219e-14 	0 	0 	
0.875 -5.04345e-14 	0 	0 	
0.885 7.31303e-14 	0 	0 	
0.895 1.36174e-13 	0 	0 	
0.905 -1.61391e-14 	0 	0 	
0.915 -9.58259e-15 	0 	0 	
0.925 -7.31303e-14 	0 	0 	
0.935 5.95127e-14 	0 	0 	
0.945 -2.32001e-14 	0 	0 	
0.955 -1.21042e-14 	0 	0 	
0.965 -2.57218e-14 	0 	0 	
0.975 -1.05913e-13 	0 	0 	
0.985 1.71478e-14 	0 	0 	
0.995 -6.50606e-14 	0 	0 	
