0.005 4.90141e-14 	0 	0 	
0.015 8.22944e-14 	0 	0 	
0.025 9.99288e-14 	0 	0 	
0.035 9.69896e-14 	0 	0 	
0.045 4.70253e-14 	0 	0 	
0.055 -1.17563e-14 	0 	0 	
0.065 -8.81725e-15 	0 	0 	
0.075 -5.87817e-15 	0 	0 	
0.085 -2.35127e-14 	0 	0 	
0.095 2.93907e-15 	0 	0 	
0.105 1.17564e-14 	0 	0 	
0.115 -2.35127e-14 	0 	0 	
0.125 -6.46599e-14 	0 	0 	
0.135 -1.23442e-13 	0 	0 	
0.145 -1.76345e-13 	-1.46837e-30 	0 	
0.155 -1.79285e-13 	1.30522e-30 	0 	
0.165 -1.44015e-13 	0 	0 	
0.175 -1.14624e-13 	0 	0 	
0.185 -7.0538e-14 	0 	0 	
0.195 1.17563e-14 	0 	0 	
0.205 6.17208e-14 	0 	0 	
0.215 5.87817e-14 	0 	0 	
0.225 7.64163e-14 	0 	0 	
0.235 9.699e-14 	5.22087e-30 	0 	
0.245 6.46599e-14 	6.52609e-31 	0 	
0.255 2.64518e-14 	0 	0 	
0.265 1.46954e-14 	0 	0 	
0.275 5.87818e-15 	0 	0 	
0.285 1.17563e-14 	0 	0 	
0.295 3.5269e-14 	0 	0 	
0.305 4.11472e-14 	0 	0 	
0.315 3.5269e-14 	0 	0 	
0.325 3.233e-14 	0 	0 	
0.335 -2.9391e-15 	0 	0 	
0.345 -4.70254e-14 	0 	0 	
0.355 -4.70254e-14 	0 	0 	
0.365 -3.23299e-14 	0 	0 	
0.375 -2.93908e-14 	0 	0 	
0.385 -3.5269e-14 	0 	0 	
0.395 -4.99645e-14 	0 	0 	
0.405 -4.70254e-14 	0 	0 	
0.415 -2.9391e-15 	0 	0 	
0.425 2.60067 	0 	0 	
0.435 13.8966 	0 	0 	
0.445 36.1088 	0 	0 	
0.455 64.438 	0 	0 	
0.465 92.3966 	0 	0 	
0.475 114.606 	0 	0 	
0.485 126.898 	0 	0 	
0.495 129.831 	0 	0 	
0.505 129.102 	0 	0 	
0.515 128.729 	0 	0 	
0.525 129.61 	0 	0 	
0.535 131.112 	0 	0 	
0.545 131.493 	0 	0 	
0.555 128.169 	0 	0 	
0.565 111.876 	0 	0 	
0.575 73.1858 	-1.17662e-30 	0 	
0.585 28.4644 	0 	0 	
0.595 4.58058 	0 	0 	
0.605 -4.62906e-14 	0 	0 	
0.615 -6.61295e-14 	0 	0 	
0.625 -8.15596e-14 	0 	0 	
0.635 -7.71508e-14 	0 	0 	
0.645 -3.08603e-14 	0 	0 	
0.655 2.20431e-15 	0 	0 	
0.665 -6.61293e-15 	0 	0 	
0.675 -2.20431e-14 	0 	0 	
0.685 -6.61293e-15 	0 	0 	
0.695 1.98388e-14 	0 	0 	
0.705 2.42475e-14 	0 	0 	
0.715 3.5269e-14 	0 	0 	
0.725 6.83336e-14 	0 	0 	
0.735 9.47853e-14 	0 	0 	
0.745 7.71509e-14 	0 	0 	
0.755 3.08604e-14 	0 	0 	
0.765 4.40863e-15 	0 	0 	
0.775 -4.40862e-15 	0 	0 	
0.785 -2.20431e-14 	0 	0 	
0.795 -2.64518e-14 	0 	0 	
0.805 2.2043e-15 	0 	0 	
0.815 2.42475e-14 	-4.4051e-30 	0 	
0.825 1.98389e-14 	0 	0 	
0.835 6.61295e-15 	0 	0 	
0.845 0 	0 	0 	
0.855 -2.20431e-15 	0 	0 	
0.865 -1.98388e-14 	0 	0 	
0.875 -3.5269e-14 	0 	0 	
0.885 -3.08604e-14 	0 	0 	
0.895 -1.98388e-14 	0 	0 	
0.905 -6.61295e-15 	0 	0 	
0.915 -1.76345e-14 	0 	0 	
0.925 -3.08604e-14 	0 	0 	
0.935 -1.98389e-14 	0 	0 	
0.945 -8.81728e-15 	0 	0 	
0.955 1.32259e-14 	0 	0 	
0.965 5.29035e-14 	0 	0 	
0.975 7.27423e-14 	0 	0 	
0.985 4.40863e-14 	0 	0 	
0.995 8.81725e-15 	0 	0 	
