0.005 0 	0 	0 	
0.015 1.17563e-14 	0 	0 	
0.025 4.40863e-14 	0 	0 	
0.035 6.17208e-14 	0 	0 	
0.045 3.82081e-14 	0 	0 	
0.055 5.87818e-15 	0 	0 	
0.065 -1.76345e-14 	0 	0 	
0.075 -5.58425e-14 	0 	0 	
0.085 -7.34769e-14 	0 	0 	
0.095 -1.76344e-14 	0 	0 	
0.105 4.70254e-14 	0 	0 	
0.115 6.46599e-14 	0 	0 	
0.125 5.29036e-14 	0 	0 	
0.135 -2.49995e-20 	0 	0 	
0.145 -7.05381e-14 	-3.26305e-31 	0 	
0.155 -1.02868e-13 	0 	0 	
0.165 -9.40507e-14 	0 	0 	
0.175 -6.7599e-14 	0 	0 	
0.185 -2.93909e-14 	0 	0 	
0.195 2.93908e-14 	0 	0 	
0.205 6.46599e-14 	0 	0 	
0.215 4.11472e-14 	0 	0 	
0.225 2.05736e-14 	0 	0 	
0.235 2.93909e-14 	6.52609e-31 	0 	
0.245 1.46955e-14 	0 	0 	
0.255 -5.87815e-15 	0 	0 	
0.265 2.9391e-15 	0 	0 	
0.275 5.87818e-15 	0 	0 	
0.285 0 	0 	0 	
0.295 0 	0 	0 	
0.305 0 	0 	0 	
0.315 2.93907e-15 	0 	0 	
0.325 2.64517e-14 	0 	0 	
0.335 4.99644e-14 	0 	0 	
0.345 1.46954e-14 	0 	0 	
0.355 -4.11472e-14 	0 	0 	
0.365 -4.11472e-14 	0 	0 	
0.375 -2.05736e-14 	0 	0 	
0.385 -2.64517e-14 	0 	0 	
0.395 -2.93908e-14 	0 	0 	
0.405 -2.93905e-15 	0 	0 	
0.415 2.93909e-14 	0 	0 	
0.425 2.93909e-14 	0 	0 	
0.435 8.81725e-15 	0 	0 	
0.445 0 	0 	0 	
0.455 1.68532 	0 	0 	
0.465 13.0684 	0 	0 	
0.475 41.5282 	0 	0 	
0.485 79.9181 	0 	0 	
0.495 113.443 	0 	0 	
0.505 131.864 	0 	0 	
0.515 130.588 	0 	0 	
0.525 105.826 	0 	0 	
0.535 60.0556 	0 	0 	
0.545 18.3565 	0 	0 	
0.555 1.73373 	0 	0 	
0.565 -6.61295e-15 	0 	0 	
0.575 -6.61295e-15 	0 	0 	
0.585 6.61295e-15 	0 	0 	
0.595 6.61295e-15 	0 	0 	
0.605 -1.32259e-14 	0 	0 	
0.615 -4.40863e-14 	0 	0 	
0.625 -5.29036e-14 	0 	0 	
0.635 -1.76345e-14 	0 	0 	
0.645 2.20431e-14 	0 	0 	
0.655 1.32259e-14 	0 	0 	
0.665 -4.40863e-14 	0 	0 	
0.675 -6.39251e-14 	0 	0 	
0.685 -1.32259e-14 	0 	0 	
0.695 5.29036e-14 	0 	0 	
0.705 8.81726e-14 	0 	0 	
0.715 5.95166e-14 	0 	0 	
0.725 1.32259e-14 	0 	0 	
0.735 0 	0 	0 	
0.745 0 	0 	0 	
0.755 -2.20431e-15 	0 	0 	
0.765 -1.76345e-14 	0 	0 	
0.775 -3.08604e-14 	0 	0 	
0.785 -1.98388e-14 	0 	0 	
0.795 -1.54302e-14 	0 	0 	
0.805 -1.76345e-14 	0 	0 	
0.815 2.20433e-15 	-4.89455e-31 	0 	
0.825 2.20432e-14 	0 	0 	
0.835 1.98389e-14 	0 	0 	
0.845 6.61295e-15 	0 	0 	
0.855 -2.20431e-15 	0 	0 	
0.865 -4.40863e-15 	0 	0 	
0.875 8.81726e-15 	0 	0 	
0.885 2.64518e-14 	0 	0 	
0.895 1.98388e-14 	0 	0 	
0.905 1.08657e-25 	0 	0 	
0.915 -1.98388e-14 	0 	0 	
0.925 -2.64518e-14 	0 	0 	
0.935 -8.81726e-15 	0 	0 	
0.945 1.54302e-14 	0 	0 	
0.955 2.64518e-14 	0 	0 	
0.965 1.54302e-14 	0 	0 	
0.975 2.20432e-15 	0 	0 	
0.985 0 	0 	0 	
0.995 0 	0 	0 	
