0.005 4.90141e-14 	0 	0 	
0.015 8.22944e-14 	0 	0 	
0.025 9.40508e-14 	0 	0 	
0.035 9.11117e-14 	0 	0 	
0.045 7.93553e-14 	0 	0 	
0.055 4.70254e-14 	0 	0 	
0.065 1.17564e-14 	0 	0 	
0.075 -8.81727e-15 	0 	0 	
0.085 -1.76345e-14 	0 	0 	
0.095 -1.17564e-14 	0 	0 	
0.105 -2.93909e-14 	0 	0 	
0.115 -7.64161e-14 	0 	0 	
0.125 -1.23441e-13 	0 	0 	
0.135 -1.70467e-13 	0 	0 	
0.145 -1.99858e-13 	-3.26305e-31 	0 	
0.155 -1.91041e-13 	0 	0 	
0.165 -1.6165e-13 	0 	0 	
0.175 -1.32259e-13 	0 	0 	
0.185 -8.52335e-14 	0 	0 	
0.195 -5.87815e-15 	0 	0 	
0.205 4.99645e-14 	0 	0 	
0.215 5.58427e-14 	0 	0 	
0.225 7.05381e-14 	0 	0 	
0.235 7.64163e-14 	6.52609e-31 	0 	
0.245 6.17208e-14 	0 	0 	
0.255 7.0538e-14 	0 	0 	
0.265 6.46599e-14 	0 	0 	
0.275 3.82081e-14 	0 	0 	
0.285 4.99645e-14 	0 	0 	
0.295 7.05381e-14 	0 	0 	
0.305 6.17208e-14 	0 	0 	
0.315 4.40863e-14 	0 	0 	
0.325 1.76345e-14 	0 	0 	
0.335 -2.35127e-14 	0 	0 	
0.345 -6.17208e-14 	0 	0 	
0.355 -6.7599e-14 	0 	0 	
0.365 -5.29036e-14 	0 	0 	
0.375 -4.99645e-14 	0 	0 	
0.385 -6.17208e-14 	0 	0 	
0.395 -7.05381e-14 	0 	0 	
0.405 0.576845 	0 	0 	
0.415 5.46636 	0 	0 	
0.425 19.1333 	0 	0 	
0.435 40.3141 	0 	0 	
0.445 64.408 	0 	0 	
0.455 87.9678 	0 	0 	
0.465 108.216 	0 	0 	
0.475 122.166 	0 	0 	
0.485 129.044 	0 	0 	
0.495 131.377 	0 	0 	
0.505 131.303 	0 	0 	
0.515 130.146 	0 	0 	
0.525 129.275 	0 	0 	
0.535 129.332 	0 	0 	
0.545 130.255 	0 	0 	
0.555 131.205 	0 	0 	
0.565 130.813 	0 	0 	
0.575 124.883 	-1.36027e-30 	0 	
0.585 101.79 	-5.35629e-31 	0 	
0.595 57.8884 	0 	0 	
0.605 17.5526 	0 	0 	
0.615 1.61988 	0 	0 	
0.625 -9.25812e-14 	0 	0 	
0.635 -9.25813e-14 	0 	0 	
0.645 -3.52691e-14 	0 	0 	
0.655 -2.2043e-15 	0 	0 	
0.665 -3.5269e-14 	0 	0 	
0.675 -4.1882e-14 	0 	0 	
0.685 1.98388e-14 	0 	0 	
0.695 5.95165e-14 	0 	0 	
0.705 3.74734e-14 	0 	0 	
0.715 3.08604e-14 	0 	0 	
0.725 7.7151e-14 	0 	0 	
0.735 1.21237e-13 	0 	0 	
0.745 9.91943e-14 	0 	0 	
0.755 3.08605e-14 	0 	0 	
0.765 -1.98388e-14 	0 	0 	
0.775 -3.74734e-14 	0 	0 	
0.785 -4.1882e-14 	0 	0 	
0.795 -5.06992e-14 	0 	0 	
0.805 -4.62906e-14 	0 	0 	
0.815 -2.42475e-14 	-4.89455e-31 	0 	
0.825 -6.61294e-15 	0 	0 	
0.835 1.10216e-14 	0 	0 	
0.845 3.08604e-14 	0 	0 	
0.855 4.84949e-14 	0 	0 	
0.865 6.39251e-14 	0 	0 	
0.875 3.74734e-14 	0 	0 	
0.885 -3.5269e-14 	0 	0 	
0.895 -7.27424e-14 	0 	0 	
0.905 -4.1882e-14 	0 	0 	
0.915 6.61295e-15 	0 	0 	
0.925 2.42475e-14 	0 	0 	
0.935 2.64518e-14 	0 	0 	
0.945 4.40863e-14 	0 	0 	
0.955 5.29036e-14 	0 	0 	
0.965 3.08604e-14 	0 	0 	
0.975 6.61295e-15 	0 	0 	
0.985 0 	0 	0 	
0.995 0 	0 	0 	
