0.005 4.90141e-14 	0 	0 	
0.015 8.22944e-14 	0 	0 	
0.025 9.99288e-14 	0 	0 	
0.035 9.11115e-14 	0 	0 	
0.045 3.52689e-14 	0 	0 	
0.055 -2.35127e-14 	0 	0 	
0.065 -2.93909e-14 	0 	0 	
0.075 -2.05736e-14 	0 	0 	
0.085 -2.64518e-14 	0 	0 	
0.095 -1.17563e-14 	0 	0 	
0.105 1.17563e-14 	0 	0 	
0.115 1.17563e-14 	0 	0 	
0.125 -1.17563e-14 	0 	0 	
0.135 -5.58426e-14 	0 	0 	
0.145 -9.99289e-14 	-6.52608e-30 	0 	
0.155 -1.26381e-13 	0 	0 	
0.165 -1.55771e-13 	0 	0 	
0.175 -1.88101e-13 	0 	0 	
0.185 -1.73406e-13 	0 	0 	
0.195 -1.23442e-13 	0 	0 	
0.205 -7.34772e-14 	0 	0 	
0.215 -3.233e-14 	0 	0 	
0.225 -3.82081e-14 	0 	0 	
0.235 -7.34771e-14 	1.30522e-29 	0 	
0.245 -9.40507e-14 	0 	0 	
0.255 -8.81726e-14 	0 	0 	
0.265 -3.5269e-14 	0 	0 	
0.275 4.40862e-14 	0 	0 	
0.285 7.93553e-14 	0 	0 	
0.295 4.99645e-14 	0 	0 	
0.305 1.17564e-14 	0 	0 	
0.315 -2.93907e-15 	0 	0 	
0.325 8.81727e-15 	0 	0 	
0.335 3.23299e-14 	0 	0 	
0.345 0.239192 	0 	0 	
0.355 2.97423 	0 	0 	
0.365 11.3226 	0 	0 	
0.375 24.8552 	0 	0 	
0.385 40.9019 	0 	0 	
0.395 57.8866 	0 	0 	
0.405 75.0659 	0 	0 	
0.415 91.6989 	0 	0 	
0.425 106.668 	0 	0 	
0.435 118.505 	0 	0 	
0.445 125.999 	0 	0 	
0.455 129.299 	0 	0 	
0.465 130.145 	0 	0 	
0.475 130.291 	0 	0 	
0.485 130.364 	0 	0 	
0.495 130.39 	0 	0 	
0.505 130.3 	0 	0 	
0.515 130.055 	0 	0 	
0.525 129.825 	0 	0 	
0.535 129.797 	0 	0 	
0.545 129.991 	0 	0 	
0.555 130.323 	0 	0 	
0.565 130.562 	0 	0 	
0.575 130.63 	-3.37781e-30 	0 	
0.585 130.537 	-2.70488e-30 	0 	
0.595 130.132 	0 	0 	
0.605 129.674 	0 	0 	
0.615 129.588 	0 	0 	
0.625 129.387 	0 	0 	
0.635 129.108 	0 	0 	
0.645 127.488 	0 	0 	
0.655 116.432 	0 	0 	
0.665 85.2167 	0 	0 	
0.675 40.6351 	0 	0 	
0.685 9.0935 	0 	0 	
0.695 0.180586 	0 	0 	
0.705 5.51079e-14 	0 	0 	
0.715 5.51079e-14 	0 	0 	
0.725 6.3925e-14 	0 	0 	
0.735 6.83336e-14 	0 	0 	
0.745 2.20431e-14 	0 	0 	
0.755 -1.98388e-14 	0 	0 	
0.765 -3.30647e-14 	0 	0 	
0.775 -4.1882e-14 	0 	0 	
0.785 -5.06992e-14 	0 	0 	
0.795 -6.61294e-14 	0 	0 	
0.805 -5.95165e-14 	0 	0 	
0.815 -3.08604e-14 	-9.78913e-30 	0 	
0.825 -1.10216e-14 	0 	0 	
0.835 8.81725e-15 	0 	0 	
0.845 3.08604e-14 	0 	0 	
0.855 3.08604e-14 	0 	0 	
0.865 6.61295e-15 	0 	0 	
0.875 -1.98388e-14 	0 	0 	
0.885 -5.95165e-14 	0 	0 	
0.895 -9.69899e-14 	0 	0 	
0.905 -7.7151e-14 	0 	0 	
0.915 -1.54302e-14 	0 	0 	
0.925 3.30647e-14 	0 	0 	
0.935 4.40863e-14 	0 	0 	
0.945 6.17208e-14 	0 	0 	
0.955 1.1242e-13 	0 	0 	
0.965 1.2785e-13 	0 	0 	
0.975 9.25811e-14 	0 	0 	
0.985 6.61294e-14 	0 	0 	
0.995 4.89007e-14 	0 	0 	
