0.005 -7.60489e-14 	0 	0 	
0.015 2.11247e-14 	0 	0 	
0.025 8.02738e-14 	0 	0 	
0.035 -2.53496e-14 	0 	0 	
0.045 2.11247e-14 	0 	0 	
0.055 8.44988e-15 	0 	0 	
0.065 4.22494e-15 	-7.03593e-31 	0 	
0.075 4.22494e-14 	0 	0 	
0.085 -1.26748e-14 	0 	0 	
0.095 2.53496e-14 	0 	0 	
0.105 6.7599e-14 	0 	0 	
0.115 1.56323e-13 	0 	0 	
0.125 1.14073e-13 	0 	0 	
0.135 2.95746e-14 	0 	0 	
0.145 1.26748e-14 	0 	0 	
0.155 2.95746e-14 	0 	0 	
0.165 -1.05623e-13 	0 	0 	
0.175 5.49242e-14 	0 	0 	
0.185 -1.26748e-14 	0 	0 	
0.195 5.91491e-14 	0 	0 	
0.205 1.43648e-13 	0 	0 	
0.215 5.06993e-14 	0 	0 	
0.225 -5.49242e-14 	0 	0 	
0.235 -1.22523e-13 	0 	0 	
0.245 -2.53496e-14 	0 	0 	
0.255 2.95746e-14 	0 	0 	
0.265 4.22494e-15 	0 	0 	
0.275 2.95746e-14 	0 	0 	
0.285 -3.37995e-14 	0 	0 	
0.295 -5.91491e-14 	0 	0 	
0.305 4.64743e-14 	0 	0 	
0.315 -2.53496e-14 	0 	0 	
0.325 4.64743e-14 	0 	0 	
0.335 4.64743e-14 	0 	0 	
0.345 1.05623e-13 	0 	0 	
0.355 -5.49242e-14 	0 	0 	
0.365 9.29486e-14 	0 	0 	
0.375 1.09848e-13 	0 	0 	
0.385 8.44988e-15 	0 	0 	
0.395 -1.05623e-13 	0 	0 	
0.405 8.44987e-14 	0 	0 	
0.415 -4.22494e-15 	0 	0 	
0.425 -4.22494e-15 	0 	0 	
0.435 6.7599e-14 	0 	0 	
0.445 8.02738e-14 	0 	0 	
0.455 -5.91491e-14 	0 	0 	
0.465 -4.64743e-14 	0 	0 	
0.475 -4.22494e-15 	0 	0 	
0.485 5.55246 	0 	0 	
0.495 70.8914 	0 	0 	
0.505 127.688 	0 	0 	
0.515 61.1186 	0 	0 	
0.525 2.53499e-14 	0 	0 	
0.535 4.43618e-14 	0 	0 	
0.545 -1.01399e-13 	0 	0 	
0.555 -5.70366e-14 	0 	0 	
0.565 1.07736e-13 	0 	0 	
0.575 9.5061e-15 	0 	0 	
0.585 -3.16894e-15 	0 	0 	
0.595 1.58433e-14 	0 	0 	
0.605 -5.0699e-14 	0 	0 	
0.615 6.33756e-15 	0 	0 	
0.625 1.58434e-14 	0 	0 	
0.635 -1.26748e-14 	0 	0 	
0.645 6.02051e-14 	0 	0 	
0.655 1.65267e-25 	0 	0 	
0.665 6.33728e-15 	0 	0 	
0.675 -4.11934e-14 	0 	0 	
0.685 9.82297e-14 	0 	0 	
0.695 -5.70369e-14 	0 	0 	
0.705 3.80246e-14 	0 	0 	
0.715 -3.16875e-15 	0 	0 	
0.725 3.80242e-14 	3.51796e-31 	0 	
0.735 -1.90124e-14 	0 	0 	
0.745 3.1685e-15 	0 	0 	
0.755 -1.65276e-25 	0 	0 	
0.765 -3.80242e-14 	-1.40719e-30 	0 	
0.775 6.65429e-14 	0 	0 	
0.785 1.90121e-14 	0 	0 	
0.795 -9.50612e-14 	0 	0 	
0.805 6.33738e-15 	0 	0 	
0.815 -7.28798e-14 	1.05539e-30 	0 	
0.825 -7.60486e-14 	3.51796e-31 	0 	
0.835 -2.21807e-14 	0 	0 	
0.845 -8.23863e-14 	0 	0 	
0.855 1.26749e-14 	0 	0 	
0.865 2.53496e-14 	0 	0 	
0.875 -5.38681e-14 	0 	0 	
0.885 5.38678e-14 	0 	0 	
0.895 -2.85185e-14 	0 	0 	
0.905 -2.85184e-14 	0 	0 	
0.915 -1.9012e-14 	0 	0 	
0.925 -8.23864e-14 	0 	0 	
0.935 7.6049e-14 	0 	0 	
0.945 1.10905e-13 	0 	0 	
0.955 -6.65429e-14 	0 	0 	
0.965 -8.55551e-14 	0 	0 	
0.975 -6.97111e-14 	0 	0 	
0.985 -3.16872e-14 	0 	0 	
0.995 3.80242e-14 	0 	0 	
