0.005 2.49963e-20 	0 	0 	
0.015 1.46954e-14 	0 	0 	
0.025 1.46956e-14 	0 	0 	
0.035 -4.40863e-14 	0 	0 	
0.045 -4.40862e-14 	0 	0 	
0.055 -7.3477e-14 	0 	0 	
0.065 -2.93908e-14 	0 	0 	
0.075 -4.40863e-14 	0 	0 	
0.085 -7.34773e-14 	0 	0 	
0.095 -8.81725e-14 	0 	0 	
0.105 -4.4086e-14 	0 	0 	
0.115 -1.46953e-14 	0 	0 	
0.125 1.02868e-13 	0 	0 	
0.135 1.76345e-13 	0 	0 	
0.145 2.20431e-13 	0 	0 	
0.155 1.17564e-13 	0 	0 	
0.165 2.49822e-13 	0 	0 	
0.175 1.6165e-13 	0 	0 	
0.185 1.6165e-13 	0 	0 	
0.195 -2.93907e-14 	0 	0 	
0.205 -4.40863e-14 	0 	0 	
0.215 -4.40863e-14 	0 	0 	
0.225 -1.02868e-13 	0 	0 	
0.235 -1.02868e-13 	0 	0 	
0.245 -2.05736e-13 	0 	0 	
0.255 -2.05736e-13 	0 	0 	
0.265 -2.20431e-13 	0 	0 	
0.275 -1.76345e-13 	0 	0 	
0.285 -1.46954e-13 	0 	0 	
0.295 -1.02868e-13 	0 	0 	
0.305 -1.46954e-14 	0 	0 	
0.315 4.4086e-14 	0 	0 	
0.325 2.52467e-11 	0 	0 	
0.335 9.61924e-09 	0 	0 	
0.345 1.30694e-06 	0 	0 	
0.355 7.84661e-05 	0 	0 	
0.365 0.00235964 	0 	0 	
0.375 0.0384107 	0 	0 	
0.385 0.356592 	0 	0 	
0.395 1.97989 	0 	0 	
0.405 7.02843 	0 	0 	
0.415 17.5084 	0 	0 	
0.425 33.7701 	0 	0 	
0.435 54.6247 	0 	0 	
0.445 78.1488 	0 	0 	
0.455 101.634 	0 	0 	
0.465 120.375 	0 	0 	
0.475 128.963 	0 	0 	
0.485 130.196 	0 	0 	
0.495 130.19 	0 	0 	
0.505 130.162 	0 	0 	
0.515 130.141 	0 	0 	
0.525 130.123 	0 	0 	
0.535 130.107 	0 	0 	
0.545 130.091 	0 	0 	
0.555 130.074 	0 	0 	
0.565 130.044 	0 	0 	
0.575 129.839 	0 	0 	
0.585 128.157 	0 	0 	
0.595 117.902 	0 	0 	
0.605 77.1674 	0 	0 	
0.615 16.8081 	0 	0 	
0.625 1.0953 	0 	0 	
0.635 0.041315 	0 	0 	
0.645 0.000958912 	0 	0 	
0.655 1.21916e-05 	0 	0 	
0.665 7.25143e-08 	0 	0 	
0.675 1.58821e-10 	0 	0 	
0.685 1.87367e-13 	0 	0 	
0.695 -5.00041e-20 	0 	0 	
0.705 -2.20431e-14 	0 	0 	
0.715 -2.20432e-14 	0 	0 	
0.725 -4.40862e-14 	0 	0 	
0.735 -9.9194e-14 	0 	0 	
0.745 -1.32259e-13 	0 	0 	
0.755 -4.40863e-14 	0 	0 	
0.765 -1.54302e-13 	0 	0 	
0.775 -1.4328e-13 	0 	0 	
0.785 -1.4328e-13 	0 	0 	
0.795 -1.54302e-13 	0 	0 	
0.805 -3.30647e-14 	0 	0 	
0.815 -2.71653e-24 	0 	0 	
0.825 3.30647e-14 	0 	0 	
0.835 3.30648e-14 	0 	0 	
0.845 1.10216e-13 	0 	0 	
0.855 8.81726e-14 	0 	0 	
0.865 6.61295e-14 	0 	0 	
0.875 -3.30646e-14 	0 	0 	
0.885 -1.10216e-14 	0 	0 	
0.895 1.10214e-14 	0 	0 	
0.905 8.81728e-14 	0 	0 	
0.915 4.40863e-14 	0 	0 	
0.925 -5.51078e-14 	0 	0 	
0.935 1.10217e-14 	0 	0 	
0.945 6.61295e-14 	0 	0 	
0.955 8.81723e-14 	0 	0 	
0.965 1.32259e-13 	0 	0 	
0.975 7.7151e-14 	0 	0 	
0.985 1.10215e-14 	0 	0 	
0.995 -3.30647e-14 	0 	0 	
