0.005 0 	0 	0 	
0.015 0 	0 	0 	
0.025 1.17563e-14 	0 	0 	
0.035 4.40863e-14 	0 	0 	
0.045 5.87817e-14 	0 	0 	
0.055 2.35127e-14 	0 	0 	
0.065 -2.05736e-14 	0 	0 	
0.075 -4.11472e-14 	0 	0 	
0.085 -3.82081e-14 	0 	0 	
0.095 5.87817e-15 	0 	0 	
0.105 4.70254e-14 	0 	0 	
0.115 4.11472e-14 	0 	0 	
0.125 2.35127e-14 	0 	0 	
0.135 -2.64517e-14 	0 	0 	
0.145 -8.52334e-14 	-1.30521e-30 	0 	
0.155 -7.93553e-14 	0 	0 	
0.165 -6.17208e-14 	0 	0 	
0.175 -5.58427e-14 	0 	0 	
0.185 -2.35127e-14 	0 	0 	
0.195 2.35127e-14 	0 	0 	
0.205 4.99645e-14 	0 	0 	
0.215 3.5269e-14 	0 	0 	
0.225 2.05736e-14 	0 	0 	
0.235 2.35127e-14 	9.78913e-31 	0 	
0.245 8.81728e-15 	0 	0 	
0.255 2.49999e-20 	0 	0 	
0.265 2.05736e-14 	0 	0 	
0.275 1.73406e-13 	0 	0 	
0.285 2.28955e-12 	0 	0 	
0.295 2.83857e-11 	0 	0 	
0.305 3.16894e-10 	0 	0 	
0.315 3.19505e-09 	0 	0 	
0.325 2.91771e-08 	0 	0 	
0.335 2.41849e-07 	0 	0 	
0.345 1.82203e-06 	0 	0 	
0.355 1.24827e-05 	0 	0 	
0.365 7.77502e-05 	0 	0 	
0.375 0.000439841 	0 	0 	
0.385 0.00225579 	0 	0 	
0.395 0.0104603 	0 	0 	
0.405 0.0437005 	0 	0 	
0.415 0.163773 	0 	0 	
0.425 0.548 	0 	0 	
0.435 1.63049 	0 	0 	
0.445 4.30437 	0 	0 	
0.455 10.0926 	0 	0 	
0.465 21.1137 	0 	0 	
0.475 39.6745 	0 	0 	
0.485 67.006 	0 	0 	
0.495 97.6935 	0 	0 	
0.505 116.959 	0 	0 	
0.515 115.116 	0 	0 	
0.525 96.4239 	0 	0 	
0.535 68.9364 	0 	0 	
0.545 40.7886 	0 	0 	
0.555 19.6125 	0 	0 	
0.565 7.71013 	0 	0 	
0.575 2.55041 	0 	0 	
0.585 0.733887 	0 	0 	
0.595 0.187888 	0 	0 	
0.605 0.0432978 	0 	0 	
0.615 0.00903297 	0 	0 	
0.625 0.00171147 	0 	0 	
0.635 0.000295068 	0 	0 	
0.645 4.63424e-05 	0 	0 	
0.655 6.63342e-06 	0 	0 	
0.665 8.65187e-07 	0 	0 	
0.675 1.02734e-07 	0 	0 	
0.685 1.10883e-08 	0 	0 	
0.695 1.08525e-09 	0 	0 	
0.705 9.60596e-11 	0 	0 	
0.715 7.68864e-12 	0 	0 	
0.725 5.62101e-13 	0 	0 	
0.735 3.5269e-14 	0 	0 	
0.745 0 	0 	0 	
0.755 0 	0 	0 	
0.765 0 	0 	0 	
0.775 -2.20431e-15 	0 	0 	
0.785 -1.32259e-14 	0 	0 	
0.795 -1.76345e-14 	0 	0 	
0.805 4.99984e-21 	0 	0 	
0.815 1.54302e-14 	-1.7131e-30 	0 	
0.825 1.32259e-14 	0 	0 	
0.835 4.40863e-15 	0 	0 	
0.845 0 	0 	0 	
0.855 -2.20431e-15 	0 	0 	
0.865 -1.10216e-14 	0 	0 	
0.875 -8.81727e-15 	0 	0 	
0.885 8.81726e-15 	0 	0 	
0.895 1.10216e-14 	0 	0 	
0.905 -2.20431e-15 	0 	0 	
0.915 -1.76345e-14 	0 	0 	
0.925 -2.20431e-14 	0 	0 	
0.935 -2.17126e-25 	0 	0 	
0.945 2.20431e-14 	0 	0 	
0.955 1.76345e-14 	0 	0 	
0.965 4.40863e-15 	0 	0 	
0.975 0 	0 	0 	
0.985 0 	0 	0 	
0.995 0 	0 	0 	
