0.005 5.84931e-25 	0 	0 	
0.015 7.0538e-14 	0 	0 	
0.025 7.05381e-14 	0 	0 	
0.035 4.70254e-14 	0 	0 	
0.045 1.64589e-13 	0 	0 	
0.055 7.0538e-14 	0 	0 	
0.065 7.0538e-14 	0 	0 	
0.075 0 	0 	0 	
0.085 -2.35127e-14 	0 	0 	
0.095 9.4051e-14 	0 	0 	
0.105 2.92499e-24 	0 	0 	
0.115 7.05383e-14 	0 	0 	
0.125 -7.05381e-14 	0 	0 	
0.135 4.70254e-14 	0 	0 	
0.145 2.35127e-14 	0 	0 	
0.155 -2.35126e-14 	0 	0 	
0.165 -4.70254e-14 	0 	0 	
0.175 -7.0538e-14 	0 	0 	
0.185 -1.16947e-24 	0 	0 	
0.195 -1.41076e-13 	0 	0 	
0.205 -3.50682e-24 	1.30522e-29 	0 	
0.215 4.70254e-14 	0 	0 	
0.225 5.69007e-12 	0 	0 	
0.235 2.34586e-10 	0 	0 	
0.245 7.19656e-09 	0 	0 	
0.255 1.67724e-07 	0 	0 	
0.265 2.99995e-06 	0 	0 	
0.275 4.14934e-05 	0 	0 	
0.285 0.00044631 	0 	0 	
0.295 0.00374802 	0 	0 	
0.305 0.024637 	0 	0 	
0.315 0.127 	0 	0 	
0.325 0.514889 	0 	0 	
0.335 1.65405 	0 	0 	
0.345 4.27819 	0 	0 	
0.355 9.14386 	0 	0 	
0.365 16.6847 	0 	0 	
0.375 26.8707 	0 	0 	
0.385 39.3246 	0 	0 	
0.395 53.5092 	0 	0 	
0.405 68.8343 	0 	0 	
0.415 84.6396 	0 	0 	
0.425 100.05 	0 	0 	
0.435 113.712 	0 	0 	
0.445 123.717 	0 	0 	
0.455 128.746 	0 	0 	
0.465 130.081 	0 	0 	
0.475 130.205 	0 	0 	
0.485 130.187 	0 	0 	
0.495 130.168 	0 	0 	
0.505 130.152 	-4.92597e-31 	0 	
0.515 130.14 	1.3554e-30 	0 	
0.525 130.128 	-1.48132e-30 	0 	
0.535 130.118 	-1.12673e-30 	0 	
0.545 130.11 	-1.19352e-30 	0 	
0.555 130.101 	0 	0 	
0.565 130.093 	0 	0 	
0.575 130.085 	3.18203e-30 	0 	
0.585 130.077 	3.37808e-30 	0 	
0.595 130.068 	3.71845e-30 	0 	
0.605 130.057 	3.88642e-30 	0 	
0.615 130.033 	-3.71667e-30 	0 	
0.625 129.932 	0 	0 	
0.635 129.414 	0 	0 	
0.645 127.048 	0 	0 	
0.655 117.915 	0 	0 	
0.665 90.1648 	0 	0 	
0.675 40.2375 	0 	0 	
0.685 8.04249 	0 	0 	
0.695 1.00623 	0 	0 	
0.705 0.10308 	0 	0 	
0.715 0.0089487 	0 	0 	
0.725 0.000647261 	0 	0 	
0.735 3.82266e-05 	0 	0 	
0.745 1.81049e-06 	0 	0 	
0.755 6.76355e-08 	-5.62874e-30 	0 	
0.765 1.96057e-09 	0 	0 	
0.775 4.33809e-11 	0 	0 	
0.785 5.99573e-13 	0 	0 	
0.795 -3.5269e-14 	-5.26166e-30 	0 	
0.805 5.29035e-14 	-5.62874e-30 	0 	
0.815 -1.73858e-24 	0 	0 	
0.825 -8.81725e-14 	0 	0 	
0.835 -4.34639e-25 	0 	0 	
0.845 -1.76344e-14 	0 	0 	
0.855 -1.76345e-14 	0 	0 	
0.865 5.29035e-14 	0 	0 	
0.875 1.05807e-13 	0 	0 	
0.885 7.0538e-14 	0 	0 	
0.895 1.05807e-13 	0 	0 	
0.905 1.73853e-24 	0 	0 	
0.915 7.0538e-14 	0 	0 	
0.925 -5.29035e-14 	0 	0 	
0.935 3.5269e-14 	0 	0 	
0.945 -1.76345e-14 	0 	0 	
0.955 1.76345e-14 	0 	0 	
0.965 -5.29035e-14 	0 	0 	
0.975 -1.76345e-14 	0 	0 	
0.985 -5.29035e-14 	0 	0 	
0.995 4.33853e-25 	0 	0 	
