0.005 -1.36374e-13 	0 	0 	
0.015 8.86429e-14 	0 	0 	
0.025 3.40934e-14 	0 	0 	
0.035 -8.18244e-14 	0 	0 	
0.045 4.77309e-14 	0 	0 	
0.055 5.11403e-14 	0 	0 	
0.065 -1.19327e-13 	0 	0 	
0.075 5.114e-14 	0 	0 	
0.085 -6.81868e-14 	0 	0 	
0.095 -9.54613e-14 	0 	0 	
0.105 1.26145e-13 	0 	0 	
0.115 9.54614e-14 	0 	0 	
0.125 5.11402e-14 	0 	0 	
0.135 6.8187e-15 	0 	0 	
0.145 6.47772e-14 	0 	0 	
0.155 1.0228e-13 	0 	0 	
0.165 6.81865e-14 	0 	0 	
0.175 1.0228e-13 	0 	0 	
0.185 6.8187e-14 	-7.33369e-30 	0 	
0.195 5.45496e-14 	0 	0 	
0.205 8.86431e-14 	0 	0 	
0.215 1.67058e-13 	0 	0 	
0.225 1.5342e-13 	0 	0 	
0.235 -5.8764e-25 	0 	0 	
0.245 8.18242e-14 	0 	0 	
0.255 6.81865e-15 	-7.57026e-30 	0 	
0.265 -6.81885e-15 	-3.78513e-30 	0 	
0.275 -1.70464e-14 	0 	0 	
0.285 1.50011e-13 	0 	0 	
0.295 2.72749e-14 	0 	0 	
0.305 -1.46602e-13 	0 	0 	
0.315 8.18239e-14 	0 	0 	
0.325 1.0228e-13 	0 	0 	
0.335 4.91917e-10 	0 	0 	
0.345 2.65276e-07 	0 	0 	
0.355 3.68969e-05 	-3.31198e-30 	0 	
0.365 0.00189959 	0 	0 	
0.375 0.0416661 	0 	0 	
0.385 0.444678 	0 	0 	
0.395 2.55692 	0 	0 	
0.405 8.88692 	0 	0 	
0.415 21.1901 	0 	0 	
0.425 39.0932 	0 	0 	
0.435 60.9574 	0 	0 	
0.445 84.7146 	0 	0 	
0.455 107.438 	0 	0 	
0.465 123.867 	0 	0 	
0.475 129.709 	0 	0 	
0.485 130.201 	0 	0 	
0.495 130.175 	7.14095e-31 	0 	
0.505 130.15 	0 	0 	
0.515 130.131 	0 	0 	
0.525 130.115 	0 	0 	
0.535 130.101 	0 	0 	
0.545 130.085 	0 	0 	
0.555 130.067 	0 	0 	
0.565 130.042 	0 	0 	
0.575 129.973 	0 	0 	
0.585 130.145 	0 	0 	
0.595 120.429 	0 	0 	
0.605 103.505 	0 	0 	
0.615 35.0927 	0 	0 	
0.625 1.89774 	0 	0 	
0.635 0.0440439 	0 	0 	
0.645 0.000526695 	0 	0 	
0.655 2.67599e-06 	0 	0 	
0.665 3.77809e-09 	0 	0 	
0.675 4.0912e-13 	0 	0 	
0.685 2.8127e-14 	0 	0 	
0.695 3.32411e-14 	0 	0 	
0.705 5.114e-15 	0 	0 	
0.715 -4.6026e-14 	0 	0 	
0.725 -1.27849e-14 	0 	0 	
0.735 1.02284e-14 	0 	0 	
0.745 4.3469e-14 	0 	0 	
0.755 5.3697e-14 	0 	0 	
0.765 5.11397e-15 	0 	0 	
0.775 5.114e-14 	0 	0 	
0.785 5.114e-15 	0 	0 	
0.795 7.67101e-14 	0 	0 	
0.805 6.90394e-14 	0 	0 	
0.815 -2.04559e-14 	0 	0 	
0.825 8.9495e-14 	0 	0 	
0.835 7.67098e-15 	0 	0 	
0.845 9.46094e-14 	0 	0 	
0.855 -1.5342e-14 	0 	0 	
0.865 5.62543e-14 	0 	0 	
0.875 -6.3925e-14 	0 	0 	
0.885 3.0684e-14 	0 	0 	
0.895 1.7899e-14 	0 	0 	
0.905 8.43814e-14 	0 	0 	
0.915 1.7899e-14 	0 	0 	
0.925 1.66205e-13 	0 	0 	
0.935 4.60264e-14 	0 	0 	
0.945 -1.45749e-13 	0 	0 	
0.955 -2.04564e-14 	0 	0 	
0.965 1.07394e-13 	0 	0 	
0.975 4.99941e-20 	0 	0 	
0.985 5.36966e-14 	0 	0 	
0.995 2.8127e-14 	0 	0 	
