0.005 1.04417e-29 	0 	0 	
0.015 -9.40507e-14 	0 	0 	
0.025 -2.92465e-24 	0 	0 	
0.035 2.35127e-14 	0 	0 	
0.045 2.13821e-46 	0 	0 	
0.055 2.3513e-14 	0 	0 	
0.065 -2.35127e-14 	0 	0 	
0.075 2.35127e-14 	0 	0 	
0.085 4.70254e-14 	0 	0 	
0.095 1.17563e-13 	0 	0 	
0.105 -4.70254e-14 	0 	0 	
0.115 4.70256e-14 	0 	0 	
0.125 2.35127e-14 	0 	0 	
0.135 -4.70254e-14 	0 	0 	
0.145 4.70255e-14 	0 	0 	
0.155 -2.35127e-14 	0 	0 	
0.165 2.3513e-14 	0 	0 	
0.175 -1.17563e-13 	0 	0 	
0.185 -2.35127e-14 	0 	0 	
0.195 -2.35127e-14 	0 	0 	
0.205 7.05381e-14 	4.89455e-30 	0 	
0.215 -2.35127e-14 	0 	0 	
0.225 -9.4051e-14 	0 	0 	
0.235 1.41076e-13 	0 	0 	
0.245 -7.0538e-14 	0 	0 	
0.255 -4.70255e-14 	0 	0 	
0.265 -9.4051e-14 	0 	0 	
0.275 -4.70254e-14 	0 	0 	
0.285 -1.41076e-13 	0 	0 	
0.295 -1.41076e-13 	0 	0 	
0.305 2.35127e-14 	0 	0 	
0.315 2.35127e-14 	0 	0 	
0.325 4.70254e-14 	0 	0 	
0.335 -7.05381e-14 	0 	0 	
0.345 -4.70256e-14 	0 	0 	
0.355 -2.35127e-14 	0 	0 	
0.365 5.59602e-12 	0 	0 	
0.375 5.24746e-09 	0 	0 	
0.385 1.24529e-06 	0 	0 	
0.395 0.000107966 	0 	0 	
0.405 0.00415799 	0 	0 	
0.415 0.0791286 	0 	0 	
0.425 0.793306 	0 	0 	
0.435 4.44518 	0 	0 	
0.445 15.2443 	0 	0 	
0.455 36.1025 	0 	0 	
0.465 65.9539 	0 	0 	
0.475 99.3571 	0 	0 	
0.485 124.011 	0 	0 	
0.495 130.121 	0 	0 	
0.505 130.203 	-4.94991e-31 	0 	
0.515 130.158 	9.22613e-31 	0 	
0.525 130.107 	-1.56144e-30 	0 	
0.535 129.852 	-6.73216e-31 	0 	
0.545 127.384 	-8.50958e-31 	0 	
0.555 112.431 	0 	0 	
0.565 64.2965 	0 	0 	
0.575 12.7155 	0 	0 	
0.585 0.916518 	0 	0 	
0.595 0.035504 	0 	0 	
0.605 0.000734338 	0 	0 	
0.615 7.1042e-06 	0 	0 	
0.625 2.58946e-08 	0 	0 	
0.635 2.3595e-11 	0 	0 	
0.645 3.05342e-24 	0 	0 	
0.655 1.76346e-14 	0 	0 	
0.665 1.05807e-13 	0 	0 	
0.675 5.29036e-14 	0 	0 	
0.685 -1.76345e-14 	0 	0 	
0.695 -1.76345e-14 	0 	0 	
0.705 -1.76345e-14 	0 	0 	
0.715 1.76344e-14 	0 	0 	
0.725 5.29035e-14 	0 	0 	
0.735 -1.76345e-14 	0 	0 	
0.745 -1.23441e-13 	0 	0 	
0.755 -8.70838e-25 	-1.83547e-30 	0 	
0.765 -3.5269e-14 	0 	0 	
0.775 -1.76345e-14 	0 	0 	
0.785 3.5269e-14 	0 	0 	
0.795 1.30627e-24 	-1.83547e-30 	0 	
0.805 5.29035e-14 	-1.83547e-30 	0 	
0.815 1.76345e-14 	0 	0 	
0.825 -1.76345e-14 	0 	0 	
0.835 -1.76345e-14 	0 	0 	
0.845 1.76345e-14 	0 	0 	
0.855 -3.5269e-14 	0 	0 	
0.865 -1.76345e-14 	0 	0 	
0.875 1.76345e-14 	0 	0 	
0.885 1.30391e-24 	0 	0 	
0.895 1.76344e-14 	0 	0 	
0.905 1.76346e-14 	0 	0 	
0.915 -8.81725e-14 	0 	0 	
0.925 8.69274e-25 	0 	0 	
0.935 1.76345e-14 	0 	0 	
0.945 -8.6769e-25 	0 	0 	
0.955 5.29035e-14 	0 	0 	
0.965 1.73543e-24 	0 	0 	
0.975 1.76345e-14 	0 	0 	
0.985 5.29035e-14 	0 	0 	
0.995 1.76345e-14 	0 	0 	
