0.005 273.152 303985
0.015 273.157 304005
0.025 273.148 303967
0.035 273.153 303988
0.045 273.144 303954
0.055 273.159 304012
0.065 273.158 304009
0.075 273.119 303852
0.085 273.145 303956
0.095 273.136 303918
0.105 273.157 304005
0.115 273.138 303929
0.125 273.165 304036
0.135 273.128 303889
0.145 273.137 303926
0.155 273.171 304058
0.165 273.147 303963
0.175 273.168 304048
0.185 273.143 303950
0.195 273.159 304012
0.205 273.158 304009
0.215 273.14 303934
0.225 273.167 304045
0.235 273.132 303904
0.245 273.152 303982
0.255 273.155 303998
0.265 273.152 303982
0.275 273.145 303954
0.285 273.152 303983
0.295 273.156 304002
0.305 273.138 303929
0.315 273.146 303959
0.325 273.153 303986
0.335 273.137 303925
0.345 273.154 303993
0.355 273.141 303942
0.365 273.148 303967
0.375 273.155 303995
0.385 273.165 304032
0.395 273.146 303960
0.405 273.132 303908
0.415 273.156 304000
0.425 273.147 303962
0.435 0.00100003 2535.79
0.445 3762.38 3.76417e+06
0.455 0.00100023 2876.99
0.465 0.001 2876.99
0.475 0.001 2876.99
0.485 0.001 2876.99
0.495 3762.38 3.76417e+06
0.505 8762.37 8.76273e+06
0.515 0.001 2876.99
0.525 0.001 2876.99
0.535 0.001 2876.99
0.545 0.001 2876.99
0.555 0.001 2876.99
0.565 0.001 2876.99
0.575 273.16 101338
0.585 273.158 101336
0.595 273.143 101315
0.605 273.151 101325
0.615 273.178 101362
0.625 273.148 101323
0.635 273.135 101306
0.645 273.14 101312
0.655 273.136 101307
0.665 273.135 101306
0.675 273.155 101332
0.685 273.143 101317
0.695 273.151 101327
0.705 273.16 101339
0.715 273.155 101332
0.725 273.144 101317
0.735 273.157 101334
0.745 273.147 101323
0.755 273.148 101322
0.765 273.16 101338
0.775 273.133 101304
0.785 273.121 101288
0.795 273.168 101349
0.805 273.147 101322
0.815 273.168 101349
0.825 273.138 101310
0.835 273.142 101316
0.845 273.141 101314
0.855 273.141 101313
0.865 273.157 101334
0.875 273.158 101335
0.885 273.123 101290
0.895 273.161 101340
0.905 273.163 101342
0.915 273.145 101321
0.925 273.166 101345
0.935 273.142 101314
0.945 273.14 101312
0.955 273.139 101311
0.965 273.156 101333
0.975 273.164 101344
0.985 273.132 101302
0.995 273.154 101330
