0.005 4.40865e-14 	0 	0 	
0.015 4.40863e-14 	0 	0 	
0.025 2.93908e-14 	0 	0 	
0.035 4.40863e-14 	0 	0 	
0.045 -4.40863e-14 	0 	0 	
0.055 1.46955e-14 	0 	0 	
0.065 -4.40862e-14 	0 	0 	
0.075 -2.93907e-14 	0 	0 	
0.085 1.92439e-46 	0 	0 	
0.095 -1.46953e-14 	0 	0 	
0.105 -1.02868e-13 	0 	0 	
0.115 -4.40863e-14 	0 	0 	
0.125 1.46955e-14 	0 	0 	
0.135 1.46953e-14 	0 	0 	
0.145 -1.46952e-14 	0 	0 	
0.155 -2.93907e-14 	0 	0 	
0.165 1.46955e-14 	0 	0 	
0.175 8.81723e-14 	0 	0 	
0.185 5.87815e-14 	0 	0 	
0.195 -7.34771e-14 	0 	0 	
0.205 2.49963e-20 	0 	0 	
0.215 -5.87817e-14 	0 	0 	
0.225 -5.87816e-14 	0 	0 	
0.235 5.87816e-14 	0 	0 	
0.245 1.46955e-14 	0 	0 	
0.255 4.4086e-14 	0 	0 	
0.265 -7.34771e-14 	0 	0 	
0.275 -5.87818e-14 	0 	0 	
0.285 4.40861e-14 	0 	0 	
0.295 -1.46956e-14 	0 	0 	
0.305 5.87816e-14 	0 	0 	
0.315 2.93906e-14 	0 	0 	
0.325 1.46953e-14 	0 	0 	
0.335 -1.46953e-14 	0 	0 	
0.345 -1.74996e-19 	0 	0 	
0.355 -4.40865e-14 	0 	0 	
0.365 1.46954e-14 	0 	0 	
0.375 1.46957e-14 	0 	0 	
0.385 -1.74996e-19 	0 	0 	
0.395 -2.93908e-14 	0 	0 	
0.405 5.87818e-14 	0 	0 	
0.415 7.3477e-14 	0 	0 	
0.425 -5.8782e-14 	0 	0 	
0.435 -2.93908e-14 	0 	0 	
0.445 1.46957e-14 	0 	0 	
0.455 7.3477e-14 	0 	0 	
0.465 0.0713903 	0 	0 	
0.475 4.8463 	0 	0 	
0.485 39.3459 	0 	0 	
0.495 110.276 	0 	0 	
0.505 129.975 	0 	0 	
0.515 116.727 	0 	0 	
0.525 37.2474 	0 	0 	
0.535 0.426307 	0 	0 	
0.545 5.51079e-14 	0 	0 	
0.555 -2.20432e-14 	0 	0 	
0.565 2.2043e-14 	0 	0 	
0.575 2.72626e-24 	0 	0 	
0.585 3.30646e-14 	0 	0 	
0.595 -6.61294e-14 	0 	0 	
0.605 9.91941e-14 	0 	0 	
0.615 4.40861e-14 	0 	0 	
0.625 5.51076e-14 	0 	0 	
0.635 5.51078e-14 	0 	0 	
0.645 -3.30647e-14 	0 	0 	
0.655 -6.61296e-14 	0 	0 	
0.665 1.10216e-14 	0 	0 	
0.675 2.20432e-14 	0 	0 	
0.685 -7.80522e-40 	0 	0 	
0.695 -2.20431e-14 	0 	0 	
0.705 1.10215e-14 	0 	0 	
0.715 4.40863e-14 	0 	0 	
0.725 -4.40863e-14 	0 	0 	
0.735 -2.20432e-14 	0 	0 	
0.745 -4.40863e-14 	0 	0 	
0.755 7.71511e-14 	0 	0 	
0.765 3.30648e-14 	0 	0 	
0.775 -7.7151e-14 	0 	0 	
0.785 -5.51079e-14 	0 	0 	
0.795 9.9194e-14 	0 	0 	
0.805 3.30647e-14 	0 	0 	
0.815 2.20432e-14 	0 	0 	
0.825 -5.5108e-14 	0 	0 	
0.835 3.15544e-30 	0 	0 	
0.845 2.20431e-14 	0 	0 	
0.855 4.40863e-14 	0 	0 	
0.865 1.10216e-13 	0 	0 	
0.875 -5.51079e-14 	0 	0 	
0.885 -1.75003e-19 	0 	0 	
0.895 -1.10212e-14 	0 	0 	
0.905 2.20432e-14 	0 	0 	
0.915 1.10216e-14 	0 	0 	
0.925 -2.20432e-14 	0 	0 	
0.935 -2.20431e-14 	0 	0 	
0.945 4.40864e-14 	0 	0 	
0.955 2.20431e-14 	0 	0 	
0.965 4.40862e-14 	0 	0 	
0.975 -4.40862e-14 	0 	0 	
0.985 0 	0 	0 	
0.995 -1.10215e-14 	0 	0 	
