0.005 1.46955e-14 	0 	0 	
0.015 8.81725e-14 	0 	0 	
0.025 5.87816e-14 	0 	0 	
0.035 4.40864e-14 	0 	0 	
0.045 -4.40862e-14 	0 	0 	
0.055 2.93905e-14 	0 	0 	
0.065 -1.46954e-14 	0 	0 	
0.075 7.34773e-14 	0 	0 	
0.085 -4.40863e-14 	0 	0 	
0.095 -7.3477e-14 	0 	0 	
0.105 -2.93908e-14 	0 	0 	
0.115 -5.87815e-14 	0 	0 	
0.125 -1.46955e-14 	0 	0 	
0.135 5.87816e-14 	0 	0 	
0.145 -1.46955e-14 	0 	0 	
0.155 -5.87818e-14 	0 	0 	
0.165 1.46953e-14 	0 	0 	
0.175 8.81725e-14 	0 	0 	
0.185 8.81723e-14 	0 	0 	
0.195 -4.40865e-14 	0 	0 	
0.205 1.46955e-14 	0 	0 	
0.215 7.49945e-20 	0 	0 	
0.225 -2.93909e-14 	0 	0 	
0.235 7.34773e-14 	0 	0 	
0.245 -4.40863e-14 	0 	0 	
0.255 4.40865e-14 	0 	0 	
0.265 -2.93906e-14 	0 	0 	
0.275 -4.40863e-14 	0 	0 	
0.285 -7.34773e-14 	0 	0 	
0.295 7.34769e-14 	0 	0 	
0.305 2.93908e-14 	0 	0 	
0.315 -4.40863e-14 	0 	0 	
0.325 5.87815e-14 	0 	0 	
0.335 4.40865e-14 	0 	0 	
0.345 -1.82239e-24 	0 	0 	
0.355 8.81724e-14 	0 	0 	
0.365 1.02868e-13 	0 	0 	
0.375 -7.34774e-14 	0 	0 	
0.385 -5.87818e-14 	0 	0 	
0.395 -2.93905e-14 	0 	0 	
0.405 1.02868e-13 	0 	0 	
0.415 -2.93909e-14 	0 	0 	
0.425 -8.81727e-14 	0 	0 	
0.435 -8.81726e-14 	0 	0 	
0.445 -1.46953e-14 	0 	0 	
0.455 0.0029001 	0 	0 	
0.465 0.69642 	0 	0 	
0.475 12.0913 	0 	0 	
0.485 55.782 	0 	0 	
0.495 118.367 	0 	0 	
0.505 130.142 	0 	0 	
0.515 125.842 	0 	0 	
0.525 78.7735 	0 	0 	
0.535 5.92628 	0 	0 	
0.545 0.015116 	0 	0 	
0.555 -2.20433e-14 	0 	0 	
0.565 3.30647e-14 	0 	0 	
0.575 4.08939e-24 	0 	0 	
0.585 0 	0 	0 	
0.595 -3.30647e-14 	0 	0 	
0.605 2.20432e-14 	0 	0 	
0.615 2.20431e-14 	0 	0 	
0.625 2.20432e-14 	0 	0 	
0.635 7.71508e-14 	0 	0 	
0.645 -4.40863e-14 	0 	0 	
0.655 -6.61293e-14 	0 	0 	
0.665 -2.20431e-14 	0 	0 	
0.675 1.10216e-14 	0 	0 	
0.685 -1.10216e-14 	0 	0 	
0.695 5.51079e-14 	0 	0 	
0.705 -1.10216e-14 	0 	0 	
0.715 4.40863e-14 	0 	0 	
0.725 5.5108e-14 	0 	0 	
0.735 -6.61295e-14 	0 	0 	
0.745 -4.40864e-14 	0 	0 	
0.755 8.81726e-14 	0 	0 	
0.765 2.20432e-14 	0 	0 	
0.775 -3.30647e-14 	0 	0 	
0.785 -1.10215e-14 	0 	0 	
0.795 -1.10216e-14 	0 	0 	
0.805 -1.10216e-14 	0 	0 	
0.815 4.40863e-14 	0 	0 	
0.825 -5.51079e-14 	0 	0 	
0.835 -6.61292e-14 	0 	0 	
0.845 2.20431e-14 	0 	0 	
0.855 2.20431e-14 	0 	0 	
0.865 5.51077e-14 	0 	0 	
0.875 -2.20431e-14 	0 	0 	
0.885 -1.10215e-14 	0 	0 	
0.895 3.30648e-14 	0 	0 	
0.905 6.61294e-14 	0 	0 	
0.915 -3.30647e-14 	0 	0 	
0.925 -6.61295e-14 	0 	0 	
0.935 -1.10217e-14 	0 	0 	
0.945 -2.20431e-14 	0 	0 	
0.955 2.20431e-14 	0 	0 	
0.965 6.61295e-14 	0 	0 	
0.975 -4.40862e-14 	0 	0 	
0.985 -8.81724e-14 	0 	0 	
0.995 1.10215e-14 	0 	0 	
