0.005 5.02581e-14 	0 	0 	
0.015 -1.5245e-13 	0 	0 	
0.025 4.18819e-14 	0 	0 	
0.035 3.35055e-15 	0 	0 	
0.045 1.10568e-13 	0 	0 	
0.055 2.17786e-14 	0 	0 	
0.065 -8.87896e-14 	0 	0 	
0.075 4.1882e-14 	0 	0 	
0.085 -2.68046e-14 	0 	0 	
0.095 4.35572e-14 	0 	0 	
0.105 -9.04649e-14 	0 	0 	
0.115 -6.70087e-15 	0 	0 	
0.125 -3.35055e-14 	0 	0 	
0.135 2.68043e-14 	0 	0 	
0.145 5.5284e-14 	0 	0 	
0.155 5.52841e-14 	0 	0 	
0.165 9.54912e-14 	0 	0 	
0.175 -8.37636e-14 	0 	0 	
0.185 6.19853e-14 	0 	0 	
0.195 4.35571e-14 	0 	0 	
0.205 -5.19339e-14 	0 	0 	
0.215 5.69596e-14 	0 	0 	
0.225 -5.02586e-14 	0 	0 	
0.235 -1.18945e-13 	0 	0 	
0.245 -4.35573e-14 	0 	0 	
0.255 5.36089e-14 	0 	0 	
0.265 7.20368e-14 	0 	0 	
0.275 -2.51292e-14 	0 	0 	
0.285 -4.85834e-14 	0 	0 	
0.295 -2.84796e-14 	0 	0 	
0.305 1.50775e-14 	0 	0 	
0.315 2.51293e-14 	0 	0 	
0.325 3.37652e-11 	0 	0 	
0.335 2.33998e-08 	0 	0 	
0.345 4.63951e-06 	0 	0 	
0.355 0.00030562 	0 	0 	
0.365 0.00859387 	0 	0 	
0.375 0.124929 	0 	0 	
0.385 0.960848 	0 	0 	
0.395 4.27249 	0 	0 	
0.405 12.3669 	0 	0 	
0.415 26.1773 	0 	0 	
0.425 44.8263 	0 	0 	
0.435 66.6727 	0 	0 	
0.445 89.7354 	0 	0 	
0.455 111.019 	0 	0 	
0.465 125.411 	6.91949e-31 	0 	
0.475 129.887 	0 	0 	
0.485 130.2 	0 	0 	
0.495 130.173 	0 	0 	
0.505 130.15 	0 	0 	
0.515 130.132 	0 	0 	
0.525 130.117 	0 	0 	
0.535 130.104 	0 	0 	
0.545 130.092 	0 	0 	
0.555 130.079 	0 	0 	
0.565 130.065 	0 	0 	
0.575 130.039 	0 	0 	
0.585 129.806 	0 	0 	
0.595 127.81 	0 	0 	
0.605 116.696 	0 	0 	
0.615 66.4787 	0 	0 	
0.625 8.00766 	0 	0 	
0.635 0.272571 	0 	0 	
0.645 0.00565239 	0 	0 	
0.655 5.75181e-05 	0 	0 	
0.665 2.13001e-07 	0 	0 	
0.675 2.43112e-10 	0 	0 	
0.685 -4.39763e-14 	0 	0 	
0.695 -4.52327e-14 	0 	0 	
0.705 -3.89504e-14 	0 	0 	
0.715 8.79538e-15 	0 	0 	
0.725 6.91054e-14 	0 	0 	
0.735 -5.1515e-14 	0 	0 	
0.745 7.41309e-14 	0 	0 	
0.755 3.2668e-14 	0 	0 	
0.765 -8.92089e-14 	0 	0 	
0.775 5.65408e-14 	0 	0 	
0.785 1.25646e-13 	0 	0 	
0.795 6.78487e-14 	0 	0 	
0.805 -1.75904e-14 	0 	0 	
0.815 -3.14114e-14 	0 	0 	
0.825 4.3976e-14 	0 	0 	
0.835 7.16181e-14 	0 	0 	
0.845 7.53877e-14 	0 	0 	
0.855 1.08056e-13 	0 	0 	
0.865 -2.51295e-14 	0 	0 	
0.875 1.00517e-13 	0 	0 	
0.885 -4.77455e-14 	0 	0 	
0.895 1.70878e-13 	0 	0 	
0.905 6.40796e-14 	0 	0 	
0.915 4.14631e-14 	0 	0 	
0.925 1.25646e-14 	0 	0 	
0.935 -7.4131e-14 	0 	0 	
0.945 -3.2668e-14 	0 	0 	
0.955 6.2824e-15 	0 	0 	
0.965 1.35698e-13 	0 	0 	
0.975 6.28212e-15 	0 	0 	
0.985 3.14114e-14 	0 	0 	
0.995 2.76421e-14 	0 	0 	
