0.005 9.41448e-15 	0 	0 	
0.015 -2.82433e-14 	0 	0 	
0.025 9.07821e-14 	0 	0 	
0.035 2.68985e-15 	0 	0 	
0.045 4.23653e-14 	0 	0 	
0.055 -9.81799e-14 	0 	0 	
0.065 1.81565e-14 	0 	0 	
0.075 6.72465e-15 	0 	0 	
0.085 1.27769e-14 	0 	0 	
0.095 -9.01103e-14 	0 	0 	
0.105 2.35364e-14 	0 	0 	
0.115 -3.36226e-15 	9.09899e-30 	0 	
0.125 -1.17681e-13 	0 	0 	
0.135 -4.10204e-14 	0 	0 	
0.145 -3.36234e-14 	0 	0 	
0.155 -1.56684e-13 	0 	0 	
0.165 2.89158e-14 	0 	0 	
0.175 6.05217e-14 	0 	0 	
0.185 -1.16336e-13 	0 	0 	
0.195 2.68985e-15 	0 	0 	
0.205 -1.76858e-13 	0 	0 	
0.215 -6.65735e-14 	0 	0 	
0.225 5.71596e-14 	0 	0 	
0.235 -1.25751e-13 	0 	0 	
0.245 -5.37971e-14 	0 	0 	
0.255 4.70722e-15 	0 	0 	
0.265 1.45252e-13 	0 	0 	
0.275 3.36232e-14 	0 	0 	
0.285 -6.59014e-14 	0 	0 	
0.295 -4.23651e-14 	0 	0 	
0.305 2.68996e-15 	0 	0 	
0.315 3.32022e-11 	0 	0 	
0.325 1.73835e-08 	0 	0 	
0.335 2.89978e-06 	0 	0 	
0.345 0.000178204 	0 	0 	
0.355 0.00496862 	0 	0 	
0.365 0.0742479 	0 	0 	
0.375 0.607357 	0 	0 	
0.385 2.91388 	0 	0 	
0.395 9.06 	0 	0 	
0.405 20.3603 	0 	0 	
0.415 36.4323 	0 	0 	
0.425 55.984 	0 	0 	
0.435 77.4749 	0 	0 	
0.445 98.9815 	0 	0 	
0.455 117.298 	0 	0 	
0.465 127.723 	0 	0 	
0.475 130.099 	0 	0 	
0.485 130.193 	0 	0 	
0.495 130.166 	0 	0 	
0.505 130.146 	0 	0 	
0.515 130.13 	0 	0 	
0.525 130.117 	0 	0 	
0.535 130.105 	0 	0 	
0.545 130.094 	0 	0 	
0.555 130.083 	0 	0 	
0.565 130.071 	0 	0 	
0.575 130.057 	0 	0 	
0.585 130.021 	0 	0 	
0.595 129.551 	0 	0 	
0.605 125.218 	0 	0 	
0.615 105.777 	0 	0 	
0.625 53.6777 	0 	0 	
0.635 5.01988 	0 	0 	
0.645 0.164445 	0 	0 	
0.655 0.00346898 	0 	0 	
0.665 3.80435e-05 	0 	0 	
0.675 1.681e-07 	0 	0 	
0.685 2.53194e-10 	0 	0 	
0.695 1.35669e-13 	0 	0 	
0.705 -8.77563e-14 	0 	0 	
0.715 -4.79129e-14 	0 	0 	
0.725 -2.52175e-14 	0 	0 	
0.735 -7.16172e-14 	0 	0 	
0.745 -6.85912e-14 	0 	0 	
0.755 3.98434e-14 	0 	0 	
0.765 -8.37215e-14 	0 	0 	
0.775 -1.3113e-13 	0 	0 	
0.785 -1.27095e-13 	0 	0 	
0.795 -6.55655e-15 	0 	0 	
0.805 -1.16e-14 	0 	0 	
0.815 -3.22781e-14 	0 	0 	
0.825 -7.06084e-14 	0 	0 	
0.835 -1.4626e-14 	0 	0 	
0.845 2.52175e-14 	0 	0 	
0.855 4.13564e-14 	0 	0 	
0.865 6.45564e-14 	0 	0 	
0.875 1.00869e-13 	0 	0 	
0.885 1.48782e-13 	0 	0 	
0.895 1.02382e-13 	0 	0 	
0.905 1.00878e-15 	0 	0 	
0.915 -5.74957e-14 	0 	0 	
0.925 3.27828e-14 	0 	0 	
0.935 -2.77391e-14 	0 	0 	
0.945 -6.00174e-14 	0 	0 	
0.955 -2.73249e-29 	0 	0 	
0.965 -1.51304e-15 	0 	0 	
0.975 -1.00869e-14 	0 	0 	
0.985 -1.71478e-14 	0 	0 	
0.995 -7.0609e-15 	0 	0 	
