0.005 -7.05381e-14 	0 	0 	
0.015 2.35127e-14 	0 	0 	
0.025 -1.16987e-24 	0 	0 	
0.035 -7.05383e-14 	0 	0 	
0.045 -2.92434e-24 	0 	0 	
0.055 7.05381e-14 	0 	0 	
0.065 9.4051e-14 	0 	0 	
0.075 4.70253e-14 	0 	0 	
0.085 2.35127e-14 	0 	0 	
0.095 7.05383e-14 	0 	0 	
0.105 1.17004e-24 	0 	0 	
0.115 -2.35126e-14 	0 	0 	
0.125 -4.70256e-14 	0 	0 	
0.135 2.92628e-24 	0 	0 	
0.145 -9.40508e-14 	0 	0 	
0.155 -9.40507e-14 	0 	0 	
0.165 -2.35127e-14 	0 	0 	
0.175 -9.40508e-14 	0 	0 	
0.185 -2.35127e-14 	0 	0 	
0.195 -4.70253e-14 	0 	0 	
0.205 4.70254e-14 	6.85239e-30 	0 	
0.215 1.17563e-13 	0 	0 	
0.225 1.75343e-24 	0 	0 	
0.235 4.70255e-14 	0 	0 	
0.245 -4.70254e-14 	0 	0 	
0.255 -1.75266e-24 	0 	0 	
0.265 -7.05381e-14 	0 	0 	
0.275 -7.0538e-14 	0 	0 	
0.285 -1.88102e-13 	0 	0 	
0.295 -2.35127e-14 	0 	0 	
0.305 -4.70254e-14 	0 	0 	
0.315 -1.75108e-24 	0 	0 	
0.325 9.64018e-13 	0 	0 	
0.335 2.94285e-10 	0 	0 	
0.345 3.79864e-08 	0 	0 	
0.355 2.54838e-06 	0 	0 	
0.365 9.64764e-05 	0 	0 	
0.375 0.00217416 	0 	0 	
0.385 0.0301947 	0 	0 	
0.395 0.264444 	0 	0 	
0.405 1.49203 	0 	0 	
0.415 5.62293 	0 	0 	
0.425 15.0643 	0 	0 	
0.435 31.031 	0 	0 	
0.445 52.844 	0 	0 	
0.455 78.3791 	0 	0 	
0.465 103.925 	0 	0 	
0.475 122.862 	0 	0 	
0.485 129.673 	0 	0 	
0.495 130.221 	0 	0 	
0.505 130.188 	-4.93738e-31 	0 	
0.515 130.158 	1.12562e-30 	0 	
0.525 130.132 	-1.64877e-30 	0 	
0.535 130.107 	-7.91713e-31 	0 	
0.545 130.071 	-1.00774e-30 	0 	
0.555 129.902 	0 	0 	
0.565 128.6 	0 	0 	
0.575 121.179 	1.55162e-30 	0 	
0.585 92.92 	7.3791e-31 	0 	
0.595 37.565 	0 	0 	
0.605 5.57317 	0 	0 	
0.615 0.440682 	0 	0 	
0.625 0.0234624 	0 	0 	
0.635 0.000828343 	0 	0 	
0.645 1.83162e-05 	0 	0 	
0.655 2.3649e-07 	0 	0 	
0.665 1.62398e-09 	0 	0 	
0.675 5.09638e-12 	0 	0 	
0.685 7.0538e-14 	0 	0 	
0.695 -3.5269e-14 	0 	0 	
0.705 -1.74168e-24 	0 	0 	
0.715 -1.76346e-14 	0 	0 	
0.725 -1.76345e-14 	0 	0 	
0.735 -8.81724e-14 	0 	0 	
0.745 -8.81725e-14 	0 	0 	
0.755 -3.52691e-14 	-2.56964e-30 	0 	
0.765 1.30626e-24 	0 	0 	
0.775 -7.05381e-14 	0 	0 	
0.785 3.52689e-14 	0 	0 	
0.795 4.35413e-25 	-2.69201e-30 	0 	
0.805 -3.5269e-14 	-2.56964e-30 	0 	
0.815 8.81725e-14 	0 	0 	
0.825 -5.29034e-14 	0 	0 	
0.835 3.15544e-30 	0 	0 	
0.845 -1.76344e-14 	0 	0 	
0.855 3.52689e-14 	0 	0 	
0.865 5.29035e-14 	0 	0 	
0.875 8.81725e-14 	0 	0 	
0.885 1.76346e-14 	0 	0 	
0.895 -1.76346e-14 	0 	0 	
0.905 5.29034e-14 	0 	0 	
0.915 7.0538e-14 	0 	0 	
0.925 1.76344e-14 	0 	0 	
0.935 4.34623e-25 	0 	0 	
0.945 -3.5269e-14 	0 	0 	
0.955 1.76345e-14 	0 	0 	
0.965 1.05807e-13 	0 	0 	
0.975 -3.5269e-14 	0 	0 	
0.985 -4.33839e-25 	0 	0 	
0.995 -1.76345e-14 	0 	0 	
