0.005 0 	0 	0 	
0.015 1.17563e-14 	0 	0 	
0.025 4.40863e-14 	0 	0 	
0.035 6.17208e-14 	0 	0 	
0.045 3.82081e-14 	0 	0 	
0.055 1.17563e-14 	0 	0 	
0.065 -8.81727e-15 	0 	0 	
0.075 -5.58425e-14 	0 	0 	
0.085 -8.52333e-14 	0 	0 	
0.095 -2.93908e-14 	0 	0 	
0.105 4.99645e-14 	0 	0 	
0.115 7.05381e-14 	0 	0 	
0.125 5.29036e-14 	0 	0 	
0.135 -2.49995e-20 	0 	0 	
0.145 -7.05381e-14 	-1.30521e-30 	0 	
0.155 -9.99289e-14 	0 	0 	
0.165 -8.81726e-14 	0 	0 	
0.175 -7.05381e-14 	0 	0 	
0.185 -4.40863e-14 	0 	0 	
0.195 2.64518e-14 	0 	0 	
0.205 7.64164e-14 	0 	0 	
0.215 4.40864e-14 	0 	0 	
0.225 1.76345e-14 	0 	0 	
0.235 2.93909e-14 	2.61042e-30 	0 	
0.245 1.46955e-14 	0 	0 	
0.255 -5.87815e-15 	0 	0 	
0.265 2.9391e-15 	0 	0 	
0.275 5.87818e-15 	0 	0 	
0.285 0 	0 	0 	
0.295 0 	0 	0 	
0.305 0 	0 	0 	
0.315 -2.93907e-15 	0 	0 	
0.325 2.9391e-15 	0 	0 	
0.335 8.81725e-15 	0 	0 	
0.345 -2.9391e-15 	0 	0 	
0.355 -5.87818e-15 	0 	0 	
0.365 0 	0 	0 	
0.375 -8.81725e-15 	0 	0 	
0.385 -2.64517e-14 	0 	0 	
0.395 -2.93908e-14 	0 	0 	
0.405 -2.93905e-15 	0 	0 	
0.415 2.93909e-14 	0 	0 	
0.425 2.93909e-14 	0 	0 	
0.435 8.81725e-15 	0 	0 	
0.445 -1.17563e-14 	0 	0 	
0.455 1.17736 	0 	0 	
0.465 11.4103 	0 	0 	
0.475 40.0831 	0 	0 	
0.485 81.6515 	0 	0 	
0.495 117.742 	0 	0 	
0.505 132.82 	0 	0 	
0.515 127.789 	0 	0 	
0.525 105.801 	0 	0 	
0.535 62.9343 	0 	0 	
0.545 20.1617 	0 	0 	
0.555 2.11803 	0 	0 	
0.565 -6.61295e-15 	0 	0 	
0.575 -6.61295e-15 	0 	0 	
0.585 6.61295e-15 	0 	0 	
0.595 6.61295e-15 	0 	0 	
0.605 -1.32259e-14 	0 	0 	
0.615 -4.40863e-14 	0 	0 	
0.625 -4.8495e-14 	0 	0 	
0.635 -4.40863e-15 	0 	0 	
0.645 3.74734e-14 	0 	0 	
0.655 1.98389e-14 	0 	0 	
0.665 -4.40863e-14 	0 	0 	
0.675 -7.05381e-14 	0 	0 	
0.685 -2.20432e-14 	0 	0 	
0.695 4.84949e-14 	0 	0 	
0.705 7.7151e-14 	0 	0 	
0.715 5.06993e-14 	0 	0 	
0.725 1.32259e-14 	0 	0 	
0.735 0 	0 	0 	
0.745 0 	0 	0 	
0.755 0 	0 	0 	
0.765 0 	0 	0 	
0.775 -4.40862e-15 	0 	0 	
0.785 -2.20431e-14 	0 	0 	
0.795 -2.64518e-14 	0 	0 	
0.805 2.2043e-15 	0 	0 	
0.815 2.42475e-14 	-1.95783e-30 	0 	
0.825 1.98389e-14 	0 	0 	
0.835 6.61295e-15 	0 	0 	
0.845 0 	0 	0 	
0.855 0 	0 	0 	
0.865 -8.81725e-15 	0 	0 	
0.875 -1.10216e-14 	0 	0 	
0.885 6.61296e-15 	0 	0 	
0.895 1.10216e-14 	0 	0 	
0.905 -4.40863e-15 	0 	0 	
0.915 -2.86561e-14 	0 	0 	
0.925 -3.5269e-14 	0 	0 	
0.935 4.40863e-15 	0 	0 	
0.945 3.74733e-14 	0 	0 	
0.955 2.42475e-14 	0 	0 	
0.965 4.40863e-15 	0 	0 	
0.975 0 	0 	0 	
0.985 0 	0 	0 	
0.995 0 	0 	0 	
