0.005 -1.01399e-13 	0 	0 	
0.015 1.26748e-13 	0 	0 	
0.025 8.44988e-15 	0 	0 	
0.035 -1.30973e-13 	0 	0 	
0.045 5.49242e-14 	0 	0 	
0.055 7.18239e-14 	0 	0 	
0.065 -6.33741e-14 	-9.14671e-30 	0 	
0.075 -4.64743e-14 	0 	0 	
0.085 2.53496e-14 	0 	0 	
0.095 1.68997e-14 	0 	0 	
0.105 -5.91491e-14 	0 	0 	
0.115 -1.14073e-13 	0 	0 	
0.125 1.22523e-13 	0 	0 	
0.135 6.7599e-14 	0 	0 	
0.145 1.68998e-14 	0 	0 	
0.155 8.44987e-15 	0 	0 	
0.165 1.14073e-13 	0 	0 	
0.175 1.30973e-13 	0 	0 	
0.185 -8.44987e-14 	0 	0 	
0.195 8.44987e-15 	0 	0 	
0.205 5.91491e-14 	0 	0 	
0.215 3.80244e-14 	0 	0 	
0.225 1.26748e-14 	0 	0 	
0.235 -8.44988e-14 	0 	0 	
0.245 5.06992e-14 	0 	0 	
0.255 -2.95746e-14 	0 	0 	
0.265 5.15442e-13 	0 	0 	
0.275 1.9278e-10 	0 	0 	
0.285 2.75344e-08 	0 	0 	
0.295 1.97722e-06 	0 	0 	
0.305 7.36295e-05 	0 	0 	
0.315 0.00155561 	0 	0 	
0.325 0.0202899 	0 	0 	
0.335 0.167839 	0 	0 	
0.345 0.894796 	0 	0 	
0.355 3.2339 	0 	0 	
0.365 8.47323 	0 	0 	
0.375 17.2888 	-1.97583e-30 	0 	
0.385 29.4254 	0 	0 	
0.395 44.1313 	0 	0 	
0.405 60.5673 	0 	0 	
0.415 77.9143 	0 	0 	
0.425 95.2442 	0 	0 	
0.435 111.125 	0 	0 	
0.445 123.11 	-6.89484e-31 	0 	
0.455 128.907 	8.79969e-31 	0 	
0.465 130.134 	0 	0 	
0.475 130.187 	1.76798e-31 	0 	
0.485 130.165 	3.53633e-31 	0 	
0.495 130.148 	0 	0 	
0.505 130.134 	0 	0 	
0.515 130.124 	1.76995e-31 	0 	
0.525 130.114 	0 	0 	
0.535 130.105 	0 	0 	
0.545 130.096 	0 	0 	
0.555 130.086 	-4.88511e-30 	0 	
0.565 130.072 	0 	0 	
0.575 130.054 	0 	0 	
0.585 130.025 	0 	0 	
0.595 129.987 	0 	0 	
0.605 129.922 	0 	0 	
0.615 129.846 	-2.90967e-30 	0 	
0.625 129.575 	0 	0 	
0.635 130.741 	0 	0 	
0.645 -720.505 	0 	0 	
0.655 599.245 	0 	0 	
0.665 60.9206 	0 	0 	
0.675 3.6932 	0 	0 	
0.685 0.14145 	0 	0 	
0.695 0.00405404 	0 	0 	
0.705 7.73875e-05 	0 	0 	
0.715 8.64091e-07 	0 	0 	
0.725 5.35903e-09 	8.09133e-30 	0 	
0.735 1.5327e-11 	0 	0 	
0.745 9.50609e-15 	0 	0 	
0.755 6.33742e-15 	0 	0 	
0.765 -1.33085e-13 	-2.11078e-29 	0 	
0.775 -6.3375e-15 	0 	0 	
0.785 -2.85184e-14 	0 	0 	
0.795 6.65428e-14 	0 	0 	
0.805 3.80242e-14 	0 	0 	
0.815 4.43619e-14 	1.16093e-29 	0 	
0.825 6.33741e-14 	5.27695e-30 	0 	
0.835 6.33738e-14 	0 	0 	
0.845 -7.60489e-14 	0 	0 	
0.855 -1.10904e-13 	0 	0 	
0.865 1.90124e-14 	0 	0 	
0.875 -5.06991e-14 	0 	0 	
0.885 -2.21809e-14 	0 	0 	
0.895 -9.1892e-14 	0 	0 	
0.905 9.82299e-14 	0 	0 	
0.915 -8.87236e-14 	0 	0 	
0.925 -4.43616e-14 	0 	0 	
0.935 6.02053e-14 	0 	0 	
0.945 4.75305e-14 	0 	0 	
0.955 3.16867e-15 	0 	0 	
0.965 1.26748e-14 	0 	0 	
0.975 4.75306e-14 	0 	0 	
0.985 -1.4576e-13 	0 	0 	
0.995 -3.16869e-15 	0 	0 	
