0.005 9.20524e-14 	0 	0 	
0.015 1.19327e-13 	0 	0 	
0.025 6.81867e-14 	0 	0 	
0.035 3.40936e-14 	0 	0 	
0.045 -6.13681e-14 	0 	0 	
0.055 3.75029e-14 	0 	0 	
0.065 -8.52336e-14 	0 	0 	
0.075 -8.52335e-14 	0 	0 	
0.085 1.29555e-13 	0 	0 	
0.095 -9.54614e-14 	0 	0 	
0.105 1.0228e-13 	0 	0 	
0.115 1.84104e-13 	0 	0 	
0.125 8.52336e-14 	0 	0 	
0.135 -8.52335e-14 	0 	0 	
0.145 1.0569e-13 	0 	0 	
0.155 2.38655e-14 	0 	0 	
0.165 8.18239e-14 	0 	0 	
0.175 6.81868e-14 	0 	0 	
0.185 4.77309e-14 	-8.51654e-30 	0 	
0.195 -3.40936e-14 	0 	0 	
0.205 2.52291e-13 	0 	0 	
0.215 -6.81868e-15 	0 	0 	
0.225 5.11401e-14 	0 	0 	
0.235 4.0912e-14 	0 	0 	
0.245 -1.36375e-14 	0 	0 	
0.255 1.67058e-13 	-8.98968e-30 	0 	
0.265 2.72746e-14 	-4.37655e-30 	0 	
0.275 1.70467e-14 	0 	0 	
0.285 1.46602e-13 	0 	0 	
0.295 -6.47772e-14 	0 	0 	
0.305 1.5417e-11 	0 	0 	
0.315 8.76338e-09 	0 	0 	
0.325 1.39601e-06 	0 	0 	
0.335 8.74246e-05 	0 	0 	
0.345 0.00258264 	0 	0 	
0.355 0.040905 	-4.0221e-30 	0 	
0.365 0.365675 	0 	0 	
0.375 1.92786 	0 	0 	
0.385 6.51676 	0 	0 	
0.395 15.6323 	0 	0 	
0.405 29.3952 	0 	0 	
0.415 46.8153 	0 	0 	
0.425 66.5717 	0 	0 	
0.435 87.2572 	0 	0 	
0.445 106.915 	0 	0 	
0.455 122.073 	0 	0 	
0.465 129.035 	0 	0 	
0.475 130.174 	0 	0 	
0.485 130.184 	0 	0 	
0.495 130.16 	7.13842e-31 	0 	
0.505 130.142 	0 	0 	
0.515 130.127 	0 	0 	
0.525 130.114 	0 	0 	
0.535 130.1 	0 	0 	
0.545 130.085 	0 	0 	
0.555 130.065 	0 	0 	
0.565 130.035 	0 	0 	
0.575 129.987 	0 	0 	
0.585 129.92 	0 	0 	
0.595 129.807 	0 	0 	
0.605 102.023 	0 	0 	
0.615 -679.929 	0 	0 	
0.625 -566.015 	0 	0 	
0.635 17.1387 	0 	0 	
0.645 3.0104 	0 	0 	
0.655 0.0895285 	0 	0 	
0.665 0.00178194 	0 	0 	
0.675 1.92319e-05 	0 	0 	
0.685 8.92264e-08 	0 	0 	
0.695 1.22314e-10 	0 	0 	
0.705 1.4575e-13 	0 	0 	
0.715 -3.06839e-14 	0 	0 	
0.725 5.114e-14 	0 	0 	
0.735 5.114e-14 	0 	0 	
0.745 1.5342e-14 	0 	0 	
0.755 1.02281e-13 	0 	0 	
0.765 5.11395e-15 	0 	0 	
0.775 1.27853e-14 	0 	0 	
0.785 3.3241e-14 	0 	0 	
0.795 8.63009e-29 	0 	0 	
0.805 -3.83554e-14 	0 	0 	
0.815 -2.55685e-15 	0 	0 	
0.825 2.55703e-14 	0 	0 	
0.835 1.7899e-14 	0 	0 	
0.845 8.43809e-14 	0 	0 	
0.855 -1.2785e-14 	0 	0 	
0.865 -2.557e-14 	0 	0 	
0.875 2.77382e-24 	0 	0 	
0.885 6.3925e-14 	0 	0 	
0.895 5.8811e-14 	0 	0 	
0.905 2.557e-14 	0 	0 	
0.915 2.55693e-15 	0 	0 	
0.925 2.55697e-14 	0 	0 	
0.935 -3.32406e-14 	0 	0 	
0.945 9.97234e-14 	0 	0 	
0.955 -2.04564e-14 	0 	0 	
0.965 5.6254e-14 	0 	0 	
0.975 8.94953e-14 	0 	0 	
0.985 2.04556e-14 	0 	0 	
0.995 5.6254e-14 	0 	0 	
