0.005 1.00576e-13 	0 	0 	
0.015 -6.41603e-14 	0 	0 	
0.025 -7.80328e-14 	0 	0 	
0.035 1.56066e-14 	0 	0 	
0.045 -1.40459e-13 	0 	0 	
0.055 -5.02878e-14 	0 	0 	
0.065 6.76284e-14 	0 	0 	
0.075 -8.67032e-15 	0 	0 	
0.085 -1.43927e-13 	8.18208e-30 	0 	
0.095 9.71075e-14 	0 	0 	
0.105 2.60107e-14 	0 	0 	
0.115 -3.46812e-14 	-4.09104e-30 	0 	
0.125 5.20219e-14 	4.09104e-30 	0 	
0.135 -4.68196e-14 	0 	0 	
0.145 5.72241e-14 	0 	0 	
0.155 1.90748e-14 	0 	0 	
0.165 -3.12132e-14 	0 	0 	
0.175 6.06921e-14 	0 	0 	
0.185 -5.89581e-14 	0 	0 	
0.195 -3.12131e-14 	0 	0 	
0.205 1.76291e-24 	0 	0 	
0.215 -7.45646e-14 	0 	0 	
0.225 -3.4681e-14 	0 	0 	
0.235 4.50856e-14 	0 	0 	
0.245 2.60109e-14 	0 	0 	
0.255 -5.02876e-14 	0 	0 	
0.265 -6.93625e-14 	0 	0 	
0.275 8.67055e-15 	0 	0 	
0.285 6.93625e-14 	0 	0 	
0.295 6.93624e-15 	0 	0 	
0.305 3.46812e-15 	0 	0 	
0.315 -1.63002e-13 	0 	0 	
0.325 4.33516e-14 	0 	0 	
0.335 -8.15009e-14 	0 	0 	
0.345 1.17533e-24 	0 	0 	
0.355 -6.24263e-14 	0 	0 	
0.365 -3.29473e-14 	0 	0 	
0.375 8.67007e-15 	0 	0 	
0.385 8.32349e-14 	0 	0 	
0.395 2.77449e-14 	0 	0 	
0.405 2.51754e-08 	0 	0 	
0.415 0.000259977 	0 	0 	
0.425 0.038554 	0 	0 	
0.435 0.981358 	0 	0 	
0.445 7.61405 	0 	0 	
0.455 26.8522 	0 	0 	
0.465 59.0809 	0 	0 	
0.475 97.3634 	0 	0 	
0.485 125.262 	0 	0 	
0.495 130.2 	0 	0 	
0.505 130.177 	0 	0 	
0.515 130.136 	0 	0 	
0.525 130.096 	0 	0 	
0.535 129.911 	0 	0 	
0.545 125.081 	0 	0 	
0.555 97.8298 	0 	0 	
0.565 25.2755 	0 	0 	
0.575 0.598822 	0 	0 	
0.585 0.00227407 	0 	0 	
0.595 1.25394e-07 	0 	0 	
0.605 -7.15302e-14 	0 	0 	
0.615 -1.17049e-14 	0 	0 	
0.625 -3.25136e-14 	0 	0 	
0.635 5.2022e-14 	0 	0 	
0.645 1.04044e-13 	0 	0 	
0.655 -8.06338e-14 	0 	0 	
0.665 3.12131e-14 	0 	0 	
0.675 -4.5519e-14 	0 	0 	
0.685 2.21094e-14 	0 	0 	
0.695 1.23552e-13 	0 	0 	
0.705 1.00142e-13 	0 	0 	
0.715 -1.10546e-13 	0 	0 	
0.725 -2.60109e-14 	0 	0 	
0.735 -7.80326e-14 	0 	0 	
0.745 -2.60105e-14 	0 	0 	
0.755 6.63276e-14 	0 	0 	
0.765 -4.55191e-14 	0 	0 	
0.775 6.50274e-14 	0 	0 	
0.785 -1.43062e-14 	0 	0 	
0.795 5.33225e-14 	0 	0 	
0.805 -1.30055e-15 	0 	0 	
0.815 1.43062e-14 	0 	0 	
0.825 7.153e-14 	0 	0 	
0.835 -2.34101e-14 	0 	0 	
0.845 -1.95084e-14 	0 	0 	
0.855 1.43061e-14 	0 	0 	
0.865 1.69071e-14 	0 	0 	
0.875 2.60109e-14 	0 	0 	
0.885 1.07945e-13 	0 	0 	
0.895 7.15298e-14 	0 	0 	
0.905 2.47104e-14 	0 	0 	
0.915 4.03169e-14 	0 	0 	
0.925 -9.1038e-14 	0 	0 	
0.935 -3.25134e-14 	0 	0 	
0.945 3.51146e-14 	0 	0 	
0.955 3.51148e-14 	0 	0 	
0.965 1.80487e-29 	0 	0 	
0.975 1.30057e-14 	0 	0 	
0.985 -4.81199e-14 	0 	0 	
0.995 4.81202e-14 	0 	0 	
