0.005 4.90141e-14 	0 	0 	
0.015 8.22944e-14 	0 	0 	
0.025 9.99288e-14 	0 	0 	
0.035 9.11115e-14 	0 	0 	
0.045 3.52689e-14 	0 	0 	
0.055 -2.35127e-14 	0 	0 	
0.065 -2.93909e-14 	0 	0 	
0.075 -2.05736e-14 	0 	0 	
0.085 -2.64518e-14 	0 	0 	
0.095 -1.17563e-14 	0 	0 	
0.105 1.17563e-14 	0 	0 	
0.115 1.17563e-14 	0 	0 	
0.125 -1.17563e-14 	0 	0 	
0.135 -5.58426e-14 	0 	0 	
0.145 -9.99289e-14 	-3.42619e-30 	0 	
0.155 -1.35198e-13 	0 	0 	
0.165 -1.85162e-13 	0 	0 	
0.175 -2.11614e-13 	0 	0 	
0.185 -1.44015e-13 	0 	0 	
0.195 -2.64516e-14 	0 	0 	
0.205 3.5269e-14 	0 	0 	
0.215 3.82081e-14 	0 	0 	
0.225 6.17207e-14 	0 	0 	
0.235 8.52333e-14 	6.85239e-30 	0 	
0.245 5.58425e-14 	0 	0 	
0.255 3.23299e-14 	0 	0 	
0.265 3.23299e-14 	0 	0 	
0.275 1.46954e-14 	0 	0 	
0.285 0 	0 	0 	
0.295 0 	0 	0 	
0.305 0 	0 	0 	
0.315 -2.93907e-15 	0 	0 	
0.325 2.9391e-15 	0 	0 	
0.335 8.81725e-15 	0 	0 	
0.345 -2.9391e-15 	0 	0 	
0.355 -5.87818e-15 	0 	0 	
0.365 -2.93907e-15 	0 	0 	
0.375 -1.76345e-14 	0 	0 	
0.385 -3.82081e-14 	0 	0 	
0.395 -5.58426e-14 	0 	0 	
0.405 -6.17208e-14 	0 	0 	
0.415 2.23063 	0 	0 	
0.425 12.1104 	0 	0 	
0.435 31.9048 	0 	0 	
0.445 57.745 	0 	0 	
0.455 84.6795 	0 	0 	
0.465 107.739 	0 	0 	
0.475 122.987 	0 	0 	
0.485 130.224 	0 	0 	
0.495 131.564 	0 	0 	
0.505 130.405 	0 	0 	
0.515 129.286 	0 	0 	
0.525 128.959 	0 	0 	
0.535 129.48 	0 	0 	
0.545 129.959 	0 	0 	
0.555 130.434 	0 	0 	
0.565 129.317 	0 	0 	
0.575 117.98 	-1.71474e-30 	0 	
0.585 85.8219 	0 	0 	
0.595 40.3909 	0 	0 	
0.605 8.74558 	0 	0 	
0.615 0.089302 	0 	0 	
0.625 -8.15596e-14 	0 	0 	
0.635 -7.49467e-14 	0 	0 	
0.645 -2.42475e-14 	0 	0 	
0.655 6.61295e-15 	0 	0 	
0.665 -2.86561e-14 	0 	0 	
0.675 -5.06993e-14 	0 	0 	
0.685 -1.10216e-14 	0 	0 	
0.695 5.06992e-14 	0 	0 	
0.705 7.27424e-14 	0 	0 	
0.715 5.51079e-14 	0 	0 	
0.725 6.39252e-14 	0 	0 	
0.735 8.81728e-14 	0 	0 	
0.745 6.61295e-14 	0 	0 	
0.755 2.42475e-14 	0 	0 	
0.765 4.40863e-15 	0 	0 	
0.775 -4.40862e-15 	0 	0 	
0.785 -2.20431e-14 	0 	0 	
0.795 -2.64518e-14 	0 	0 	
0.805 2.2043e-15 	0 	0 	
0.815 2.42475e-14 	-5.13929e-30 	0 	
0.825 1.98389e-14 	0 	0 	
0.835 6.61295e-15 	0 	0 	
0.845 0 	0 	0 	
0.855 -6.61295e-15 	0 	0 	
0.865 -3.30647e-14 	0 	0 	
0.875 -5.73122e-14 	0 	0 	
0.885 -4.84949e-14 	0 	0 	
0.895 -4.40863e-14 	0 	0 	
0.905 -4.84949e-14 	0 	0 	
0.915 -2.64518e-14 	0 	0 	
0.925 -1.10216e-14 	0 	0 	
0.935 9.99984e-21 	0 	0 	
0.945 1.76345e-14 	0 	0 	
0.955 2.86561e-14 	0 	0 	
0.965 5.29036e-14 	0 	0 	
0.975 6.39252e-14 	0 	0 	
0.985 5.51079e-14 	0 	0 	
0.995 4.44921e-14 	0 	0 	
