0.005 3.52689e-14 	0 	0 	
0.015 -1.76345e-13 	0 	0 	
0.025 -3.5269e-14 	0 	0 	
0.035 -2.11614e-13 	0 	0 	
0.045 7.05381e-14 	0 	0 	
0.055 -3.52689e-14 	0 	0 	
0.065 3.5269e-14 	0 	0 	
0.075 1.05807e-13 	0 	0 	
0.085 7.0538e-14 	0 	0 	
0.095 -3.5269e-14 	0 	0 	
0.105 3.5269e-14 	0 	0 	
0.115 1.31648e-24 	0 	0 	
0.125 -3.5269e-14 	-1.83547e-30 	0 	
0.135 3.95046e-24 	0 	0 	
0.145 -3.52691e-14 	0 	0 	
0.155 1.76345e-13 	0 	0 	
0.165 1.05807e-13 	0 	0 	
0.175 -3.5269e-14 	-3.91565e-30 	0 	
0.185 -3.17421e-13 	-3.67093e-30 	0 	
0.195 7.0538e-14 	0 	0 	
0.205 1.41076e-13 	0 	0 	
0.215 -3.5269e-14 	0 	0 	
0.225 -3.5269e-14 	0 	0 	
0.235 3.5269e-14 	0 	0 	
0.245 1.41076e-13 	0 	0 	
0.255 -7.05379e-14 	-4.4051e-30 	0 	
0.265 2.11614e-13 	-4.16038e-30 	0 	
0.275 -1.41076e-13 	0 	0 	
0.285 -3.5269e-14 	0 	0 	
0.295 3.93987e-24 	0 	0 	
0.305 1.05807e-13 	0 	0 	
0.315 -1.76345e-13 	0 	0 	
0.325 -3.52691e-14 	0 	0 	
0.335 -1.05807e-13 	0 	0 	
0.345 7.0538e-14 	0 	0 	
0.355 -1.76345e-13 	-3.91565e-30 	0 	
0.365 -3.5269e-14 	0 	0 	
0.375 -7.0538e-14 	0 	0 	
0.385 1.05807e-13 	0 	0 	
0.395 -3.5269e-14 	0 	0 	
0.405 2.11614e-13 	0 	0 	
0.415 0.000174407 	4.16038e-30 	0 	
0.425 0.03252 	3.91591e-30 	0 	
0.435 0.916395 	-1.96206e-30 	0 	
0.445 7.44834 	3.74318e-30 	0 	
0.455 26.7253 	7.91176e-31 	0 	
0.465 59.1213 	1.45462e-30 	0 	
0.475 97.5842 	0 	0 	
0.485 125.448 	4.52918e-31 	0 	
0.495 130.201 	1.84879e-31 	0 	
0.505 130.174 	-1.85261e-31 	0 	
0.515 130.129 	0 	0 	
0.525 130.081 	0 	0 	
0.535 129.801 	0 	0 	
0.545 120.268 	0 	0 	
0.555 56.2552 	0 	0 	
0.565 23.1989 	0 	0 	
0.575 0.504448 	0 	0 	
0.585 0.00148965 	0 	0 	
0.595 -1.05794e-13 	0 	0 	
0.605 -5.29036e-14 	0 	0 	
0.615 7.93555e-14 	0 	0 	
0.625 5.29035e-14 	0 	0 	
0.635 -1.05807e-13 	0 	0 	
0.645 5.29035e-14 	0 	0 	
0.655 1.96283e-24 	0 	0 	
0.665 -7.9355e-14 	0 	0 	
0.675 1.05807e-13 	0 	0 	
0.685 -5.8888e-24 	0 	0 	
0.695 -2.64515e-14 	0 	0 	
0.705 5.29035e-14 	0 	0 	
0.715 -1.05807e-13 	0 	0 	
0.725 -7.93553e-14 	0 	0 	
0.735 2.64517e-14 	0 	0 	
0.745 7.93555e-14 	0 	0 	
0.755 -7.93553e-14 	0 	0 	
0.765 1.05807e-13 	0 	0 	
0.775 1.05807e-13 	0 	0 	
0.785 1.32259e-13 	0 	0 	
0.795 -5.29035e-14 	0 	0 	
0.805 3.91878e-24 	0 	0 	
0.815 -2.6452e-14 	0 	0 	
0.825 -2.64517e-14 	0 	0 	
0.835 -5.29035e-14 	0 	0 	
0.845 2.64517e-14 	0 	0 	
0.855 -7.93552e-14 	0 	0 	
0.865 -2.6452e-14 	0 	0 	
0.875 5.29035e-14 	0 	0 	
0.885 2.9338e-24 	0 	0 	
0.895 -2.6452e-14 	0 	0 	
0.905 2.64518e-14 	0 	0 	
0.915 -2.64518e-14 	0 	0 	
0.925 2.6452e-14 	0 	0 	
0.935 -7.93555e-14 	0 	0 	
0.945 2.64517e-14 	0 	0 	
0.955 7.93555e-14 	0 	0 	
0.965 -2.6452e-14 	0 	0 	
0.975 -1.05807e-13 	0 	0 	
0.985 -9.76178e-25 	0 	0 	
0.995 3.90467e-24 	0 	0 	
