0.005 1.26748e-14 	0 	0 	
0.015 -4.64743e-14 	0 	0 	
0.025 -8.02738e-14 	0 	0 	
0.035 5.91491e-14 	0 	0 	
0.045 7.18239e-14 	0 	0 	
0.055 5.49242e-14 	0 	0 	
0.065 8.87237e-14 	-5.15969e-30 	0 	
0.075 -5.06993e-14 	0 	0 	
0.085 -2.53496e-14 	0 	0 	
0.095 5.91491e-14 	0 	0 	
0.105 8.44987e-15 	0 	0 	
0.115 6.7599e-14 	0 	0 	
0.125 -1.26748e-14 	0 	0 	
0.135 -1.60548e-13 	0 	0 	
0.145 -1.05623e-13 	0 	0 	
0.155 4.22494e-15 	0 	0 	
0.165 -1.26748e-13 	0 	0 	
0.175 2.20367e-25 	0 	0 	
0.185 -9.29486e-14 	0 	0 	
0.195 1.77447e-13 	0 	0 	
0.205 -8.44987e-15 	0 	0 	
0.215 8.02738e-14 	0 	0 	
0.225 -2.11247e-14 	0 	0 	
0.235 8.44988e-15 	0 	0 	
0.245 -8.87237e-14 	0 	0 	
0.255 -2.95746e-14 	0 	0 	
0.265 -2.53496e-14 	0 	0 	
0.275 3.37995e-14 	0 	0 	
0.285 2.95746e-14 	0 	0 	
0.295 2.53496e-14 	0 	0 	
0.305 -3.37995e-14 	0 	0 	
0.315 -8.87237e-14 	0 	0 	
0.325 -4.64743e-14 	0 	0 	
0.335 -1.26748e-14 	0 	0 	
0.345 -3.37995e-14 	0 	0 	
0.355 1.56323e-13 	0 	0 	
0.365 8.97499e-09 	0 	0 	
0.375 6.71053e-06 	0 	0 	
0.385 0.000812412 	0 	0 	
0.395 0.0297969 	0 	0 	
0.405 0.444038 	0 	0 	
0.415 3.07317 	0 	0 	
0.425 11.4726 	0 	0 	
0.435 27.859 	0 	0 	
0.445 51.2703 	1.91196e-30 	0 	
0.455 78.8205 	0 	0 	
0.465 106.089 	0 	0 	
0.475 125.007 	0 	0 	
0.485 130.038 	7.0737e-31 	0 	
0.495 130.197 	0 	0 	
0.505 130.164 	0 	0 	
0.515 130.139 	1.78915e-31 	0 	
0.525 130.117 	0 	0 	
0.535 130.098 	0 	0 	
0.545 130.079 	0 	0 	
0.555 130.039 	-3.4025e-30 	0 	
0.565 129.764 	0 	0 	
0.575 127.716 	0 	0 	
0.585 102.833 	0 	0 	
0.595 32.504 	0 	0 	
0.605 1.49176 	0 	0 	
0.615 0.0264592 	0 	0 	
0.625 0.000177706 	0 	0 	
0.635 2.48732e-07 	0 	0 	
0.645 1.70476e-11 	0 	0 	
0.655 3.80243e-14 	0 	0 	
0.665 -1.58435e-14 	0 	0 	
0.675 8.87237e-14 	0 	0 	
0.685 7.60486e-14 	0 	0 	
0.695 9.5061e-15 	0 	0 	
0.705 4.75306e-14 	0 	0 	
0.715 3.80244e-14 	0 	0 	
0.725 7.6049e-14 	4.57336e-30 	0 	
0.735 -8.87235e-14 	0 	0 	
0.745 -7.92175e-14 	0 	0 	
0.755 5.06994e-14 	0 	0 	
0.765 -6.33741e-14 	-1.26647e-29 	0 	
0.775 2.85181e-14 	0 	0 	
0.785 -1.26748e-13 	0 	0 	
0.795 9.50612e-14 	0 	0 	
0.805 2.85183e-14 	0 	0 	
0.815 -5.70368e-14 	5.98055e-30 	0 	
0.825 -7.28804e-14 	2.99027e-30 	0 	
0.835 -1.90121e-14 	0 	0 	
0.845 2.53496e-14 	0 	0 	
0.855 -3.48558e-14 	0 	0 	
0.865 3.16872e-14 	0 	0 	
0.875 3.16856e-15 	0 	0 	
0.885 9.50611e-15 	0 	0 	
0.895 -4.75304e-14 	0 	0 	
0.905 -9.50602e-15 	0 	0 	
0.915 1.26748e-13 	0 	0 	
0.925 1.26748e-14 	0 	0 	
0.935 3.48556e-14 	0 	0 	
0.945 6.65426e-14 	0 	0 	
0.955 -9.50612e-15 	0 	0 	
0.965 4.43616e-14 	0 	0 	
0.975 1.58434e-14 	0 	0 	
0.985 -1.90123e-14 	0 	0 	
0.995 6.3374e-15 	0 	0 	
