0.005 -5.65771e-14 	0 	0 	
0.015 -1.61651e-14 	0 	0 	
0.025 -8.89075e-14 	0 	0 	
0.035 8.0825e-15 	0 	0 	
0.045 -8.08249e-15 	0 	0 	
0.055 1.17534e-25 	0 	0 	
0.065 -7.27425e-14 	0 	0 	
0.075 -6.46601e-14 	0 	0 	
0.085 1.37402e-13 	0 	0 	
0.095 1.13155e-13 	0 	0 	
0.105 4.04125e-14 	0 	0 	
0.115 4.04125e-14 	0 	0 	
0.125 8.89076e-14 	0 	0 	
0.135 -1.6165e-14 	0 	0 	
0.145 3.233e-14 	0 	0 	
0.155 8.08249e-15 	0 	0 	
0.165 4.8495e-14 	0 	0 	
0.175 -3.233e-14 	0 	0 	
0.185 1.37403e-13 	0 	0 	
0.195 -4.04125e-14 	0 	0 	
0.205 1.13155e-13 	0 	0 	
0.215 -4.04121e-14 	0 	0 	
0.225 6.466e-14 	0 	0 	
0.235 4.8495e-14 	0 	0 	
0.245 -6.466e-14 	0 	0 	
0.255 -1.21237e-13 	0 	0 	
0.265 8.08249e-15 	0 	0 	
0.275 -1.6165e-13 	0 	0 	
0.285 -2.42475e-14 	0 	0 	
0.295 -8.08212e-15 	0 	0 	
0.305 -7.27426e-14 	0 	0 	
0.315 -6.466e-14 	4.71101e-30 	0 	
0.325 -4.8495e-14 	0 	0 	
0.335 1.61651e-14 	-4.71101e-30 	0 	
0.345 -2.42475e-14 	0 	0 	
0.355 5.7022e-11 	-2.3555e-30 	0 	
0.365 1.05226e-07 	9.42202e-30 	0 	
0.375 2.78383e-05 	0 	0 	
0.385 0.00196262 	0 	0 	
0.395 0.053096 	0 	0 	
0.405 0.631045 	0 	0 	
0.415 3.75681 	0 	0 	
0.425 12.8729 	-2.3281e-31 	0 	
0.435 29.8259 	0 	0 	
0.445 53.4701 	-1.05395e-30 	0 	
0.455 80.9415 	-1.15882e-30 	0 	
0.465 107.721 	-1.88061e-30 	0 	
0.475 125.601 	0 	0 	
0.485 130.071 	0 	0 	
0.495 130.197 	-6.77567e-31 	0 	
0.505 130.165 	-6.78126e-31 	0 	
0.515 130.139 	0 	0 	
0.525 130.117 	0 	0 	
0.535 130.098 	0 	0 	
0.545 130.077 	0 	0 	
0.555 130.026 	0 	0 	
0.565 129.509 	0 	0 	
0.575 124.827 	0 	0 	
0.585 97.2371 	0 	0 	
0.595 27.8692 	0 	0 	
0.605 1.43825 	0 	0 	
0.615 0.0302043 	0 	0 	
0.625 0.000287701 	0 	0 	
0.635 7.99334e-07 	0 	0 	
0.645 3.37349e-10 	0 	0 	
0.655 -5.45568e-14 	0 	0 	
0.665 -4.8495e-14 	0 	0 	
0.675 -6.06187e-15 	0 	0 	
0.685 -6.06193e-15 	0 	0 	
0.695 -3.03093e-14 	0 	0 	
0.705 -6.06186e-15 	0 	0 	
0.715 -4.2433e-14 	0 	0 	
0.725 -4.84949e-14 	0 	0 	
0.735 -6.06183e-14 	0 	0 	
0.745 7.88044e-14 	0 	0 	
0.755 1.21238e-13 	0 	0 	
0.765 -6.06186e-15 	0 	0 	
0.775 1.21238e-14 	0 	0 	
0.785 2.42474e-14 	0 	0 	
0.795 -1.81856e-14 	0 	0 	
0.805 -2.42476e-14 	0 	0 	
0.815 -2.42475e-14 	0 	0 	
0.825 -6.06192e-15 	0 	0 	
0.835 4.24331e-14 	0 	0 	
0.845 5.45568e-14 	0 	0 	
0.855 -6.06185e-15 	0 	0 	
0.865 6.06188e-14 	0 	0 	
0.875 -4.84945e-14 	0 	0 	
0.885 -4.73266e-20 	0 	0 	
0.895 4.24332e-14 	0 	0 	
0.905 1.81857e-14 	0 	0 	
0.915 9.69899e-14 	0 	0 	
0.925 -6.06186e-14 	0 	0 	
0.935 -1.09114e-13 	0 	0 	
0.945 1.8186e-14 	0 	0 	
0.955 3.63713e-14 	0 	0 	
0.965 -3.63713e-14 	0 	0 	
0.975 -4.8495e-14 	0 	0 	
0.985 -7.76738e-20 	0 	0 	
0.995 -9.09281e-14 	0 	0 	
