0.005 4.90141e-14 	0 	0 	
0.015 8.22944e-14 	0 	0 	
0.025 9.99288e-14 	0 	0 	
0.035 9.11115e-14 	0 	0 	
0.045 3.52689e-14 	0 	0 	
0.055 -2.35127e-14 	0 	0 	
0.065 -2.93909e-14 	0 	0 	
0.075 -2.05736e-14 	0 	0 	
0.085 -2.64518e-14 	0 	0 	
0.095 -1.17563e-14 	0 	0 	
0.105 1.17563e-14 	0 	0 	
0.115 1.17563e-14 	0 	0 	
0.125 -1.17563e-14 	0 	0 	
0.135 -5.58426e-14 	0 	0 	
0.145 -9.99289e-14 	-3.7525e-30 	0 	
0.155 -1.35198e-13 	0 	0 	
0.165 -1.79284e-13 	0 	0 	
0.175 -2.08675e-13 	0 	0 	
0.185 -1.73406e-13 	0 	0 	
0.195 -7.34773e-14 	0 	0 	
0.205 1.17563e-14 	0 	0 	
0.215 3.5269e-14 	0 	0 	
0.225 6.17207e-14 	0 	0 	
0.235 8.52333e-14 	7.505e-30 	0 	
0.245 6.17207e-14 	0 	0 	
0.255 4.40863e-14 	0 	0 	
0.265 3.82081e-14 	0 	0 	
0.275 1.46954e-14 	0 	0 	
0.285 0 	0 	0 	
0.295 0 	0 	0 	
0.305 0 	0 	0 	
0.315 -2.93907e-15 	0 	0 	
0.325 2.9391e-15 	0 	0 	
0.335 8.81725e-15 	0 	0 	
0.345 -2.9391e-15 	0 	0 	
0.355 -5.87818e-15 	0 	0 	
0.365 -2.93907e-15 	0 	0 	
0.375 -2.35127e-14 	0 	0 	
0.385 -4.99645e-14 	0 	0 	
0.395 -6.17208e-14 	0 	0 	
0.405 0.953107 	0 	0 	
0.415 7.22374 	0 	0 	
0.425 22.9102 	0 	0 	
0.435 45.8338 	0 	0 	
0.445 71.2945 	0 	0 	
0.455 95.8164 	0 	0 	
0.465 114.837 	0 	0 	
0.475 125.656 	0 	0 	
0.485 130.402 	0 	0 	
0.495 131.555 	0 	0 	
0.505 130.89 	0 	0 	
0.515 129.963 	0 	0 	
0.525 129.356 	0 	0 	
0.535 129.098 	0 	0 	
0.545 129.161 	0 	0 	
0.555 130.197 	0 	0 	
0.565 130.769 	0 	0 	
0.575 127.8 	-2.35914e-30 	0 	
0.585 114.15 	0 	0 	
0.595 79.0428 	0 	0 	
0.605 33.7539 	0 	0 	
0.615 6.2916 	0 	0 	
0.625 -8.59682e-14 	0 	0 	
0.635 -8.37638e-14 	0 	0 	
0.645 -3.30647e-14 	0 	0 	
0.655 6.61292e-15 	0 	0 	
0.665 -1.76345e-14 	0 	0 	
0.675 -3.96777e-14 	0 	0 	
0.685 -4.35811e-25 	0 	0 	
0.695 5.51079e-14 	0 	0 	
0.705 7.05381e-14 	0 	0 	
0.715 5.73122e-14 	0 	0 	
0.725 6.61295e-14 	0 	0 	
0.735 8.81728e-14 	0 	0 	
0.745 6.61295e-14 	0 	0 	
0.755 2.42475e-14 	0 	0 	
0.765 4.40863e-15 	0 	0 	
0.775 -4.40862e-15 	0 	0 	
0.785 -2.20431e-14 	0 	0 	
0.795 -2.64518e-14 	0 	0 	
0.805 2.2043e-15 	0 	0 	
0.815 2.42475e-14 	-5.62874e-30 	0 	
0.825 1.98389e-14 	0 	0 	
0.835 6.61295e-15 	0 	0 	
0.845 0 	0 	0 	
0.855 -6.61295e-15 	0 	0 	
0.865 -3.74733e-14 	0 	0 	
0.875 -6.61294e-14 	0 	0 	
0.885 -6.17208e-14 	0 	0 	
0.895 -5.51079e-14 	0 	0 	
0.905 -4.40863e-14 	0 	0 	
0.915 -2.20432e-14 	0 	0 	
0.925 -1.10216e-14 	0 	0 	
0.935 -1.08563e-25 	0 	0 	
0.945 1.32259e-14 	0 	0 	
0.955 3.08604e-14 	0 	0 	
0.965 5.95165e-14 	0 	0 	
0.975 7.27424e-14 	0 	0 	
0.985 6.61294e-14 	0 	0 	
0.995 4.89007e-14 	0 	0 	
