0.005 -1.68997e-14 	0 	0 	
0.015 3.37995e-14 	0 	0 	
0.025 6.7599e-14 	0 	0 	
0.035 1.56323e-13 	0 	0 	
0.045 7.60489e-14 	0 	0 	
0.055 -6.33741e-14 	0 	0 	
0.065 1.26748e-14 	-8.44311e-30 	0 	
0.075 -8.87237e-14 	0 	0 	
0.085 -5.06993e-14 	0 	0 	
0.095 7.18239e-14 	0 	0 	
0.105 -2.53496e-14 	0 	0 	
0.115 -6.33741e-14 	0 	0 	
0.125 6.004e-29 	0 	0 	
0.135 1.26748e-13 	0 	0 	
0.145 1.30973e-13 	0 	0 	
0.155 -2.95746e-14 	0 	0 	
0.165 2.11247e-13 	0 	0 	
0.175 1.35198e-13 	0 	0 	
0.185 5.49242e-14 	0 	0 	
0.195 4.22494e-15 	0 	0 	
0.205 1.18298e-13 	0 	0 	
0.215 -2.95746e-14 	0 	0 	
0.225 -4.64743e-14 	0 	0 	
0.235 -1.26748e-14 	0 	0 	
0.245 8.44988e-15 	0 	0 	
0.255 -2.53496e-14 	0 	0 	
0.265 4.22494e-14 	0 	0 	
0.275 1.85897e-13 	0 	0 	
0.285 1.37733e-11 	0 	0 	
0.295 4.30686e-09 	0 	0 	
0.305 5.00639e-07 	0 	0 	
0.315 2.66475e-05 	0 	0 	
0.325 0.000770479 	0 	0 	
0.335 0.0128546 	0 	0 	
0.345 0.125933 	0 	0 	
0.355 0.763231 	0 	0 	
0.365 3.03627 	0 	0 	
0.375 8.44953 	-7.21401e-31 	0 	
0.385 17.8409 	0 	0 	
0.395 30.9683 	0 	0 	
0.405 46.9629 	0 	0 	
0.415 64.8099 	0 	0 	
0.425 83.4862 	0 	0 	
0.435 101.704 	0 	0 	
0.445 117.258 	-1.05059e-45 	0 	
0.455 126.896 	1.39858e-30 	0 	
0.465 129.914 	0 	0 	
0.475 130.194 	0 	0 	
0.485 130.174 	3.53677e-31 	0 	
0.495 130.154 	0 	0 	
0.505 130.138 	0 	0 	
0.515 130.126 	1.77047e-31 	0 	
0.525 130.115 	0 	0 	
0.535 130.106 	0 	0 	
0.545 130.096 	0 	0 	
0.555 130.087 	-5.09561e-30 	0 	
0.565 130.074 	0 	0 	
0.575 130.059 	0 	0 	
0.585 130.036 	0 	0 	
0.595 130.001 	0 	0 	
0.605 129.955 	0 	0 	
0.615 129.702 	-2.91334e-30 	0 	
0.625 123.261 	0 	0 	
0.635 70.7026 	0 	0 	
0.645 62.1051 	0 	0 	
0.655 26.186 	0 	0 	
0.665 1.58762 	0 	0 	
0.675 0.0506834 	0 	0 	
0.685 0.00115181 	0 	0 	
0.695 1.65758e-05 	0 	0 	
0.705 1.21776e-07 	0 	0 	
0.715 3.64806e-10 	0 	0 	
0.725 4.4045e-13 	7.38773e-30 	0 	
0.735 -4.11929e-14 	0 	0 	
0.745 -2.85182e-14 	0 	0 	
0.755 2.21813e-14 	0 	0 	
0.765 -6.33738e-15 	-1.8997e-29 	0 	
0.775 -1.33085e-13 	0 	0 	
0.785 6.33742e-14 	0 	0 	
0.795 -5.38677e-14 	0 	0 	
0.805 4.75305e-14 	0 	0 	
0.815 3.4856e-14 	1.09057e-29 	0 	
0.825 1.58436e-14 	4.92515e-30 	0 	
0.835 5.38677e-14 	0 	0 	
0.845 -1.58435e-13 	0 	0 	
0.855 -4.1193e-14 	0 	0 	
0.865 -2.21812e-14 	0 	0 	
0.875 -4.43616e-14 	0 	0 	
0.885 1.04567e-13 	0 	0 	
0.895 4.43618e-14 	0 	0 	
0.905 6.65426e-14 	0 	0 	
0.915 -1.07736e-13 	0 	0 	
0.925 1.67941e-13 	0 	0 	
0.935 8.23863e-14 	0 	0 	
0.945 9.50611e-14 	0 	0 	
0.955 7.28798e-14 	0 	0 	
0.965 4.43616e-14 	0 	0 	
0.975 -5.06991e-14 	0 	0 	
0.985 5.70369e-14 	0 	0 	
0.995 2.53496e-14 	0 	0 	
