0.005 6.47777e-14 	0 	0 	
0.015 -3.40934e-14 	0 	0 	
0.025 1.70468e-14 	0 	0 	
0.035 8.18239e-14 	0 	0 	
0.045 3.40935e-14 	0 	0 	
0.055 1.19327e-13 	0 	0 	
0.065 -8.1824e-14 	0 	0 	
0.075 -6.81868e-14 	0 	0 	
0.085 4.09123e-14 	0 	0 	
0.095 -9.2052e-14 	0 	0 	
0.105 1.32964e-13 	0 	0 	
0.115 8.52334e-14 	0 	0 	
0.125 -3.40935e-14 	0 	0 	
0.135 5.114e-14 	0 	0 	
0.145 6.81868e-15 	0 	0 	
0.155 -3.40936e-15 	0 	0 	
0.165 -1.29555e-13 	0 	0 	
0.175 1.70466e-14 	0 	0 	
0.185 1.36376e-14 	-1.89256e-30 	0 	
0.195 8.86427e-14 	0 	0 	
0.205 8.86427e-14 	0 	0 	
0.215 1.29555e-13 	0 	0 	
0.225 -2.38654e-13 	0 	0 	
0.235 -3.40948e-15 	0 	0 	
0.245 1.77285e-13 	0 	0 	
0.255 -6.47773e-14 	-1.89256e-30 	0 	
0.265 3.40936e-14 	-1.18285e-30 	0 	
0.275 -3.40934e-14 	0 	0 	
0.285 9.88707e-14 	0 	0 	
0.295 2.72748e-14 	0 	0 	
0.305 1.32965e-13 	0 	0 	
0.315 8.86428e-14 	0 	0 	
0.325 1.0228e-13 	0 	0 	
0.335 3.0684e-14 	0 	0 	
0.345 9.88711e-14 	0 	0 	
0.355 2.72743e-14 	-8.27997e-31 	0 	
0.365 -1.15917e-13 	0 	0 	
0.375 1.70465e-14 	0 	0 	
0.385 1.0569e-13 	0 	0 	
0.395 1.15918e-13 	0 	0 	
0.405 1.09099e-13 	0 	0 	
0.415 -7.8415e-14 	0 	0 	
0.425 -1.70467e-14 	0 	0 	
0.435 2.7275e-14 	0 	0 	
0.445 4.43211e-14 	0 	0 	
0.455 0.0143555 	0 	0 	
0.465 1.9657 	0 	0 	
0.475 21.0851 	0 	0 	
0.485 72.0997 	0 	0 	
0.495 125.147 	7.08984e-31 	0 	
0.505 130.179 	0 	0 	
0.515 129.293 	0 	0 	
0.525 108.168 	0 	0 	
0.535 23.1406 	0 	0 	
0.545 0.0974686 	0 	0 	
0.555 9.2052e-14 	0 	0 	
0.565 -5.6254e-14 	0 	0 	
0.575 2.50027e-20 	0 	0 	
0.585 4.85831e-14 	0 	0 	
0.595 -6.9039e-14 	0 	0 	
0.605 -2.12231e-13 	0 	0 	
0.615 1.5342e-14 	0 	0 	
0.625 5.114e-14 	0 	0 	
0.635 -6.39253e-14 	0 	0 	
0.645 7.671e-15 	0 	0 	
0.655 -4.09121e-14 	0 	0 	
0.665 -4.34692e-14 	0 	0 	
0.675 1.2785e-14 	0 	0 	
0.685 1.12508e-13 	0 	0 	
0.695 -2.09674e-13 	0 	0 	
0.705 6.13679e-14 	0 	0 	
0.715 -2.81273e-14 	0 	0 	
0.725 1.27848e-14 	0 	0 	
0.735 7.671e-15 	0 	0 	
0.745 6.6482e-14 	0 	0 	
0.755 1.76433e-13 	0 	0 	
0.765 -1.5342e-14 	0 	0 	
0.775 -2.55702e-14 	0 	0 	
0.785 -8.94953e-14 	0 	0 	
0.795 1.53421e-14 	0 	0 	
0.805 7.1596e-14 	0 	0 	
0.815 -7.67102e-14 	0 	0 	
0.825 9.14651e-24 	0 	0 	
0.835 5.8811e-14 	0 	0 	
0.845 -2.8127e-14 	0 	0 	
0.855 1.07394e-13 	0 	0 	
0.865 5.3697e-14 	0 	0 	
0.875 3.8355e-14 	0 	0 	
0.885 3.06841e-14 	0 	0 	
0.895 1.2785e-13 	0 	0 	
0.905 2.557e-15 	0 	0 	
0.915 -1.7899e-14 	0 	0 	
0.925 1.27852e-14 	0 	0 	
0.935 3.57984e-14 	0 	0 	
0.945 -1.0228e-14 	0 	0 	
0.955 -2.3013e-14 	0 	0 	
0.965 5.114e-14 	0 	0 	
0.975 -2.557e-14 	0 	0 	
0.985 1.2785e-14 	0 	0 	
0.995 1.27849e-14 	0 	0 	
