0.005 5.48921e-14 	0 	0 	
0.015 1.02868e-13 	0 	0 	
0.025 1.26381e-13 	0 	0 	
0.035 1.2932e-13 	0 	0 	
0.045 1.23442e-13 	0 	0 	
0.055 9.99289e-14 	0 	0 	
0.065 6.46599e-14 	0 	0 	
0.075 -5.87807e-15 	0 	0 	
0.085 -9.69895e-14 	0 	0 	
0.095 -1.41076e-13 	0 	0 	
0.105 -1.5871e-13 	0 	0 	
0.115 -1.64589e-13 	0 	0 	
0.125 -1.61649e-13 	0 	0 	
0.135 -1.85162e-13 	0 	0 	
0.145 -2.20431e-13 	-3.26305e-31 	0 	
0.155 -2.49822e-13 	0 	0 	
0.165 -2.61579e-13 	0 	0 	
0.175 -2.11615e-13 	0 	0 	
0.185 -1.11685e-13 	0 	0 	
0.195 -2.05736e-14 	0 	0 	
0.205 1.46955e-14 	0 	0 	
0.215 1.17564e-14 	0 	0 	
0.225 2.93909e-14 	0 	0 	
0.235 4.70254e-14 	6.52609e-31 	0 	
0.245 6.46598e-14 	0 	0 	
0.255 1.02868e-13 	0 	0 	
0.265 1.23441e-13 	0 	0 	
0.275 1.2638e-13 	0 	0 	
0.285 1.26381e-13 	0 	0 	
0.295 9.99289e-14 	0 	0 	
0.305 6.7599e-14 	0 	0 	
0.315 6.17208e-14 	0 	0 	
0.325 6.7599e-14 	0 	0 	
0.335 5.87817e-14 	0 	0 	
0.345 -2.939e-15 	0 	0 	
0.355 -7.6416e-14 	0 	0 	
0.365 0.138708 	0 	0 	
0.375 2.51991 	0 	0 	
0.385 10.6741 	0 	0 	
0.395 24.8705 	0 	0 	
0.405 42.3415 	0 	0 	
0.415 60.9272 	0 	0 	
0.425 79.4496 	0 	0 	
0.435 96.85 	0 	0 	
0.445 111.824 	0 	0 	
0.455 122.494 	0 	0 	
0.465 128.207 	0 	0 	
0.475 130.56 	0 	0 	
0.485 131.027 	0 	0 	
0.495 130.573 	0 	0 	
0.505 130.029 	0 	0 	
0.515 129.77 	0 	0 	
0.525 129.866 	0 	0 	
0.535 130.124 	0 	0 	
0.545 130.313 	0 	0 	
0.555 130.301 	0 	0 	
0.565 130.098 	0 	0 	
0.575 129.868 	-1.69235e-30 	0 	
0.585 129.847 	-8.47975e-31 	0 	
0.595 130.007 	0 	0 	
0.605 129.959 	0 	0 	
0.615 128.243 	0 	0 	
0.625 117.908 	0 	0 	
0.635 87.4402 	0 	0 	
0.645 42.3629 	0 	0 	
0.655 9.75633 	0 	0 	
0.665 0.257428 	0 	0 	
0.675 -5.51079e-14 	0 	0 	
0.685 1.98388e-14 	0 	0 	
0.695 6.83337e-14 	0 	0 	
0.705 4.1882e-14 	0 	0 	
0.715 1.32259e-14 	0 	0 	
0.725 5.06992e-14 	0 	0 	
0.735 8.15597e-14 	0 	0 	
0.745 7.27424e-14 	0 	0 	
0.755 5.51079e-14 	0 	0 	
0.765 4.1882e-14 	0 	0 	
0.775 3.96777e-14 	0 	0 	
0.785 8.81728e-15 	0 	0 	
0.795 -3.74733e-14 	0 	0 	
0.805 -3.30647e-14 	0 	0 	
0.815 -4.40862e-15 	-4.89455e-31 	0 	
0.825 8.81726e-15 	0 	0 	
0.835 2.42475e-14 	0 	0 	
0.845 4.1882e-14 	0 	0 	
0.855 4.1882e-14 	0 	0 	
0.865 2.42475e-14 	0 	0 	
0.875 -4.40864e-15 	0 	0 	
0.885 -4.62906e-14 	0 	0 	
0.895 -7.05381e-14 	0 	0 	
0.905 -4.1882e-14 	0 	0 	
0.915 4.40862e-15 	0 	0 	
0.925 1.98388e-14 	0 	0 	
0.935 2.20431e-14 	0 	0 	
0.945 3.30647e-14 	0 	0 	
0.955 3.74734e-14 	0 	0 	
0.965 2.64518e-14 	0 	0 	
0.975 3.5269e-14 	0 	0 	
0.985 5.95165e-14 	0 	0 	
0.995 4.33735e-14 	0 	0 	
