0.005 4.90141e-14 	0 	0 	
0.015 8.22944e-14 	0 	0 	
0.025 9.40508e-14 	0 	0 	
0.035 9.69898e-14 	0 	0 	
0.045 9.99289e-14 	0 	0 	
0.055 7.93553e-14 	0 	0 	
0.065 3.82081e-14 	0 	0 	
0.075 -1.17564e-14 	0 	0 	
0.085 -4.99645e-14 	0 	0 	
0.095 -4.40863e-14 	0 	0 	
0.105 -5.58427e-14 	0 	0 	
0.115 -1.08746e-13 	0 	0 	
0.125 -1.52832e-13 	0 	0 	
0.135 -1.9398e-13 	0 	0 	
0.145 -2.35127e-13 	-3.26305e-31 	0 	
0.155 -2.32188e-13 	0 	0 	
0.165 -1.79284e-13 	0 	0 	
0.175 -1.32259e-13 	0 	0 	
0.185 -8.52335e-14 	0 	0 	
0.195 -8.81725e-15 	0 	0 	
0.205 3.82081e-14 	0 	0 	
0.215 3.82081e-14 	0 	0 	
0.225 4.70254e-14 	0 	0 	
0.235 5.29036e-14 	6.52609e-31 	0 	
0.245 6.46598e-14 	0 	0 	
0.255 1.02868e-13 	0 	0 	
0.265 1.08746e-13 	0 	0 	
0.275 7.34772e-14 	0 	0 	
0.285 6.17208e-14 	0 	0 	
0.295 7.05381e-14 	0 	0 	
0.305 6.7599e-14 	0 	0 	
0.315 5.87817e-14 	0 	0 	
0.325 3.233e-14 	0 	0 	
0.335 -2.93907e-15 	0 	0 	
0.345 -4.11472e-14 	0 	0 	
0.355 -7.93553e-14 	0 	0 	
0.365 -8.81726e-14 	0 	0 	
0.375 -8.52335e-14 	0 	0 	
0.385 -9.11116e-14 	0 	0 	
0.395 1.39322 	0 	0 	
0.405 8.25171 	0 	0 	
0.415 23.0109 	0 	0 	
0.425 43.1016 	0 	0 	
0.435 64.9294 	0 	0 	
0.445 86.3015 	0 	0 	
0.455 105.238 	0 	0 	
0.465 119.698 	0 	0 	
0.475 127.897 	0 	0 	
0.485 130.398 	0 	0 	
0.495 130.478 	0 	0 	
0.505 130.338 	0 	0 	
0.515 130.323 	0 	0 	
0.525 130.317 	0 	0 	
0.535 130.102 	0 	0 	
0.545 129.75 	0 	0 	
0.555 129.681 	0 	0 	
0.565 130.147 	0 	0 	
0.575 130.589 	-1.68911e-30 	0 	
0.585 129.32 	-5.07654e-31 	0 	
0.595 119.622 	0 	0 	
0.605 89.644 	0 	0 	
0.615 44.0544 	0 	0 	
0.625 10.3846 	0 	0 	
0.635 0.332893 	0 	0 	
0.645 -4.84948e-14 	0 	0 	
0.655 -4.4086e-15 	0 	0 	
0.665 -3.74733e-14 	0 	0 	
0.675 -5.29035e-14 	0 	0 	
0.685 1.32259e-14 	0 	0 	
0.695 5.95165e-14 	0 	0 	
0.705 4.40863e-14 	0 	0 	
0.715 4.1882e-14 	0 	0 	
0.725 7.93553e-14 	0 	0 	
0.735 1.10216e-13 	0 	0 	
0.745 8.81726e-14 	0 	0 	
0.755 3.96777e-14 	0 	0 	
0.765 4.40863e-15 	0 	0 	
0.775 -1.54302e-14 	0 	0 	
0.785 -3.30647e-14 	0 	0 	
0.795 -5.29035e-14 	0 	0 	
0.805 -5.06992e-14 	0 	0 	
0.815 -2.42475e-14 	-4.89455e-31 	0 	
0.825 -1.08662e-25 	0 	0 	
0.835 2.20431e-14 	0 	0 	
0.845 4.40863e-14 	0 	0 	
0.855 5.51079e-14 	0 	0 	
0.865 5.51079e-14 	0 	0 	
0.875 1.98388e-14 	0 	0 	
0.885 -4.62906e-14 	0 	0 	
0.895 -7.49467e-14 	0 	0 	
0.905 -4.1882e-14 	0 	0 	
0.915 8.81725e-15 	0 	0 	
0.925 2.86561e-14 	0 	0 	
0.935 2.64518e-14 	0 	0 	
0.945 2.20431e-14 	0 	0 	
0.955 1.54302e-14 	0 	0 	
0.965 3.5269e-14 	0 	0 	
0.975 5.51079e-14 	0 	0 	
0.985 3.08604e-14 	0 	0 	
0.995 4.40863e-15 	0 	0 	
