0.005 -6.25064e-07 	0 	0 	
0.015 4.65688e-07 	0 	0 	
0.025 -8.146e-08 	0 	0 	
0.035 -4.70345e-07 	0 	0 	
0.045 7.8211e-08 	0 	0 	
0.055 -4.88705e-07 	0 	0 	
0.065 3.49155e-07 	0 	0 	
0.075 -4.62676e-07 	0 	0 	
0.085 -3.6035e-08 	0 	0 	
0.095 -7.3735e-08 	0 	0 	
0.105 5.45116e-07 	0 	0 	
0.115 5.32455e-07 	0 	0 	
0.125 -5.04065e-07 	0 	0 	
0.135 4.15364e-07 	0 	0 	
0.145 -3.633e-08 	0 	0 	
0.155 5.1274e-07 	0 	0 	
0.165 -3.76154e-07 	0 	0 	
0.175 -2.5301e-07 	0 	0 	
0.185 -1.21436e-07 	0 	0 	
0.195 -6.81958e-07 	0 	0 	
0.205 4.60575e-07 	0 	0 	
0.215 -5.2871e-07 	0 	0 	
0.225 7.2255e-09 	0 	0 	
0.235 3.97725e-07 	0 	0 	
0.245 -1.3512e-07 	0 	0 	
0.255 1.98585e-07 	0 	0 	
0.265 1.23235e-07 	0 	0 	
0.275 3.34446e-07 	0 	0 	
0.285 3.23945e-07 	0 	0 	
0.295 3.4646e-08 	0 	0 	
0.305 -4.949e-08 	0 	0 	
0.315 8.3e-10 	0 	0 	
0.325 4.23335e-07 	0 	0 	
0.335 2.4725e-08 	0 	0 	
0.345 1.9603e-07 	0 	0 	
0.355 5.5589e-08 	0 	0 	
0.365 -3.28765e-07 	0 	0 	
0.375 2.9787e-07 	0 	0 	
0.385 -2.01743e-07 	0 	0 	
0.395 -2.69327e-07 	0 	0 	
0.405 -2.99695e-07 	0 	0 	
0.415 -1.42766e-07 	0 	0 	
0.425 -2.4841e-07 	0 	0 	
0.435 -1.50601e-07 	0 	0 	
0.445 -1.871e-07 	0 	0 	
0.455 6.715e-08 	0 	0 	
0.465 -8166.43 	0 	0 	
0.475 -4.6173e+12 	0 	0 	
0.485 -3.33692e+19 	0 	0 	
0.495 -2.70297e+33 	0 	0 	
0.505 -1.9783e+39 	0 	0 	
0.515 7.93913e+29 	0 	0 	
0.525 2.1e+20 	0 	0 	
0.535 8.91508e+08 	0 	0 	
0.545 -1.12795e-07 	0 	0 	
0.555 2.00845e-07 	0 	0 	
0.565 1.8739e-07 	0 	0 	
0.575 5.49536e-07 	0 	0 	
0.585 3.20235e-07 	0 	0 	
0.595 1.48695e-07 	0 	0 	
0.605 1.54105e-07 	0 	0 	
0.615 -1.22755e-07 	0 	0 	
0.625 2.783e-08 	0 	0 	
0.635 -8.88262e-07 	0 	0 	
0.645 2.1897e-07 	0 	0 	
0.655 1.24498e-07 	0 	0 	
0.665 -1.27e-07 	0 	0 	
0.675 -4.13213e-07 	0 	0 	
0.685 1.44813e-07 	0 	0 	
0.695 6.87935e-07 	0 	0 	
0.705 -2.7319e-07 	0 	0 	
0.715 -8.11907e-07 	0 	0 	
0.725 -5.29645e-07 	0 	0 	
0.735 -3.43183e-07 	0 	0 	
0.745 -1.29735e-07 	0 	0 	
0.755 -8.107e-08 	0 	0 	
0.765 6.1605e-08 	0 	0 	
0.775 6.45615e-07 	0 	0 	
0.785 4.1663e-07 	0 	0 	
0.795 2.54435e-07 	0 	0 	
0.805 6.8983e-07 	0 	0 	
0.815 6.0355e-08 	0 	0 	
0.825 -4.54425e-07 	0 	0 	
0.835 -1.95725e-07 	0 	0 	
0.845 2.3375e-07 	0 	0 	
0.855 -3.0281e-07 	0 	0 	
0.865 -2.7449e-07 	0 	0 	
0.875 4.978e-08 	0 	0 	
0.885 -1.87436e-07 	0 	0 	
0.895 -4.82055e-07 	0 	0 	
0.905 3.46314e-07 	0 	0 	
0.915 -4.4998e-07 	0 	0 	
0.925 -1.76525e-07 	0 	0 	
0.935 -1.15215e-07 	0 	0 	
0.945 3.57945e-07 	0 	0 	
0.955 7.72451e-07 	0 	0 	
0.965 -1.45864e-07 	0 	0 	
0.975 -5.9415e-08 	0 	0 	
0.985 8.727e-08 	0 	0 	
0.995 -1.4824e-07 	0 	0 	
