0.005 -2.95746e-14 	0 	0 	
0.015 -2.95746e-14 	0 	0 	
0.025 1.68998e-14 	0 	0 	
0.035 5.06993e-14 	0 	0 	
0.045 1.22523e-13 	0 	0 	
0.055 -7.18239e-14 	0 	0 	
0.065 -1.26748e-14 	-3.98703e-30 	0 	
0.075 -8.87237e-14 	0 	0 	
0.085 3.37995e-14 	0 	0 	
0.095 -1.26748e-14 	0 	0 	
0.105 8.44988e-15 	0 	0 	
0.115 -4.22494e-15 	0 	0 	
0.125 4.22494e-15 	0 	0 	
0.135 -5.91491e-14 	0 	0 	
0.145 -1.68998e-14 	0 	0 	
0.155 -5.91491e-14 	0 	0 	
0.165 -4.64743e-14 	0 	0 	
0.175 -7.18239e-14 	0 	0 	
0.185 1.01399e-13 	0 	0 	
0.195 1.68998e-13 	0 	0 	
0.205 6.7599e-14 	0 	0 	
0.215 8.44988e-14 	0 	0 	
0.225 4.22494e-14 	0 	0 	
0.235 1.26748e-14 	0 	0 	
0.245 -5.91491e-14 	0 	0 	
0.255 -1.01398e-13 	0 	0 	
0.265 -3.37995e-14 	0 	0 	
0.275 1.05623e-13 	0 	0 	
0.285 -1.01398e-13 	0 	0 	
0.295 3.80244e-14 	0 	0 	
0.305 1.68998e-14 	0 	0 	
0.315 1.09848e-13 	0 	0 	
0.325 8.44987e-14 	0 	0 	
0.335 5.06992e-14 	0 	0 	
0.345 5.49242e-14 	0 	0 	
0.355 -1.30973e-13 	0 	0 	
0.365 -9.29486e-14 	0 	0 	
0.375 -2.20382e-25 	0 	0 	
0.385 2.70476e-09 	0 	0 	
0.395 9.39791e-06 	0 	0 	
0.405 0.00195274 	0 	0 	
0.415 0.0882767 	0 	0 	
0.425 1.24708 	0 	0 	
0.435 7.32207 	0 	0 	
0.445 23.1497 	7.51712e-31 	0 	
0.455 49.1543 	0 	0 	
0.465 81.4468 	0 	0 	
0.475 112.467 	0 	0 	
0.485 128.554 	8.79339e-31 	0 	
0.495 130.21 	0 	0 	
0.505 130.175 	0 	0 	
0.515 130.141 	1.83861e-31 	0 	
0.525 130.113 	0 	0 	
0.535 130.084 	0 	0 	
0.545 129.976 	0 	0 	
0.555 128.716 	-3.89837e-30 	0 	
0.565 114.827 	0 	0 	
0.575 55.7232 	0 	0 	
0.585 3.89687 	0 	0 	
0.595 0.0569797 	0 	0 	
0.605 0.000241274 	0 	0 	
0.615 1.01415e-07 	0 	0 	
0.625 1.58434e-14 	0 	0 	
0.635 -3.1687e-14 	0 	0 	
0.645 -9.50613e-15 	0 	0 	
0.655 -9.50619e-15 	0 	0 	
0.665 6.02052e-14 	0 	0 	
0.675 -4.1193e-14 	0 	0 	
0.685 1.10905e-13 	0 	0 	
0.695 2.8518e-14 	0 	0 	
0.705 7.6049e-14 	0 	0 	
0.715 -3.48556e-14 	0 	0 	
0.725 -1.26747e-14 	3.16618e-30 	0 	
0.735 9.85031e-30 	0 	0 	
0.745 -1.58434e-14 	0 	0 	
0.755 3.48561e-14 	0 	0 	
0.765 -4.75308e-14 	-9.8503e-30 	0 	
0.775 4.75305e-14 	0 	0 	
0.785 -6.02051e-14 	0 	0 	
0.795 5.38677e-14 	0 	0 	
0.805 3.16869e-14 	0 	0 	
0.815 -2.21805e-14 	4.57336e-30 	0 	
0.825 2.53494e-14 	2.46257e-30 	0 	
0.835 -3.16906e-15 	0 	0 	
0.845 3.48561e-14 	0 	0 	
0.855 3.48557e-14 	0 	0 	
0.865 -2.85182e-14 	0 	0 	
0.875 -6.33742e-14 	0 	0 	
0.885 9.50613e-15 	0 	0 	
0.895 -5.0699e-14 	0 	0 	
0.905 9.82296e-14 	0 	0 	
0.915 -7.92177e-14 	0 	0 	
0.925 7.6049e-14 	0 	0 	
0.935 1.58434e-14 	0 	0 	
0.945 5.06992e-14 	0 	0 	
0.955 5.70368e-14 	0 	0 	
0.965 -9.5059e-15 	0 	0 	
0.975 -1.29917e-13 	0 	0 	
0.985 -9.50609e-14 	0 	0 	
0.995 -1.58433e-14 	0 	0 	
