0.005 4.70256e-14 	0 	0 	
0.015 2.35127e-14 	0 	0 	
0.025 -2.35127e-14 	0 	0 	
0.035 -1.16989e-24 	0 	0 	
0.045 -4.70256e-14 	0 	0 	
0.055 0 	0 	0 	
0.065 2.3513e-14 	0 	0 	
0.075 -2.3513e-14 	0 	0 	
0.085 4.70253e-14 	0 	0 	
0.095 4.70254e-14 	0 	0 	
0.105 2.33999e-24 	0 	0 	
0.115 2.35127e-14 	0 	0 	
0.125 2.35126e-14 	0 	0 	
0.135 -5.8525e-25 	0 	0 	
0.145 -1.41076e-13 	0 	0 	
0.155 -7.0538e-14 	0 	0 	
0.165 5.84998e-25 	0 	0 	
0.175 1.16945e-24 	0 	0 	
0.185 2.35126e-14 	0 	0 	
0.195 -2.35126e-14 	0 	0 	
0.205 -1.16896e-24 	2.61042e-30 	0 	
0.215 9.40507e-14 	0 	0 	
0.225 -2.3513e-14 	0 	0 	
0.235 -9.40508e-14 	0 	0 	
0.245 7.05381e-14 	0 	0 	
0.255 4.70254e-14 	0 	0 	
0.265 2.35127e-14 	0 	0 	
0.275 0 	0 	0 	
0.285 -4.70254e-14 	0 	0 	
0.295 -1.75109e-24 	0 	0 	
0.305 -5.83687e-25 	0 	0 	
0.315 -4.70253e-14 	0 	0 	
0.325 -4.70253e-14 	0 	0 	
0.335 -4.70254e-14 	0 	0 	
0.345 4.70256e-14 	0 	0 	
0.355 1.16633e-24 	0 	0 	
0.365 4.70253e-14 	0 	0 	
0.375 -1.16634e-24 	0 	0 	
0.385 7.0538e-14 	0 	0 	
0.395 -7.05383e-14 	0 	0 	
0.405 -5.83118e-25 	0 	0 	
0.415 7.0538e-14 	0 	0 	
0.425 2.74882e-07 	0 	0 	
0.435 0.000322656 	0 	0 	
0.445 0.0357386 	0 	0 	
0.455 0.946918 	0 	0 	
0.465 8.47987 	0 	0 	
0.475 34.2412 	0 	0 	
0.485 81.3536 	0 	0 	
0.495 124.544 	0 	0 	
0.505 130.197 	-1.01505e-30 	0 	
0.515 129.423 	4.73732e-31 	0 	
0.525 118.56 	-1.38665e-30 	0 	
0.535 66.0911 	-7.87808e-31 	0 	
0.545 8.5733 	-1.06365e-30 	0 	
0.555 0.236314 	0 	0 	
0.565 0.00162764 	0 	0 	
0.575 1.10508e-06 	0 	0 	
0.585 -5.29035e-14 	0 	0 	
0.595 1.05807e-13 	0 	0 	
0.605 7.0538e-14 	0 	0 	
0.615 -3.5269e-14 	0 	0 	
0.625 -5.29035e-14 	0 	0 	
0.635 -8.81725e-14 	0 	0 	
0.645 8.72406e-25 	0 	0 	
0.655 8.81725e-14 	0 	0 	
0.665 1.05807e-13 	0 	0 	
0.675 7.0538e-14 	0 	0 	
0.685 -5.29035e-14 	0 	0 	
0.695 -3.5269e-14 	0 	0 	
0.705 -5.29035e-14 	0 	0 	
0.715 1.76345e-14 	0 	0 	
0.725 -1.76345e-14 	0 	0 	
0.735 -1.05807e-13 	0 	0 	
0.745 5.29035e-14 	0 	0 	
0.755 5.29036e-14 	-9.78913e-31 	0 	
0.765 -3.5269e-14 	0 	0 	
0.775 -1.76345e-14 	0 	0 	
0.785 1.76345e-14 	0 	0 	
0.795 5.29035e-14 	-9.78913e-31 	0 	
0.805 1.05807e-13 	-9.78913e-31 	0 	
0.815 1.23441e-13 	0 	0 	
0.825 -3.5269e-14 	0 	0 	
0.835 8.81724e-14 	0 	0 	
0.845 -1.76345e-14 	0 	0 	
0.855 -3.5269e-14 	0 	0 	
0.865 1.23441e-13 	0 	0 	
0.875 8.81725e-14 	0 	0 	
0.885 -3.5269e-14 	0 	0 	
0.895 -7.0538e-14 	0 	0 	
0.905 7.0538e-14 	0 	0 	
0.915 -1.76345e-14 	0 	0 	
0.925 3.5269e-14 	0 	0 	
0.935 3.5269e-14 	0 	0 	
0.945 -7.0538e-14 	0 	0 	
0.955 3.52691e-14 	0 	0 	
0.965 -1.76345e-14 	0 	0 	
0.975 5.29034e-14 	0 	0 	
0.985 7.0538e-14 	0 	0 	
0.995 3.5269e-14 	0 	0 	
