0.005 4.90141e-14 	0 	0 	
0.015 8.22944e-14 	0 	0 	
0.025 9.99288e-14 	0 	0 	
0.035 9.11115e-14 	0 	0 	
0.045 3.52689e-14 	0 	0 	
0.055 -2.35127e-14 	0 	0 	
0.065 -2.93909e-14 	0 	0 	
0.075 -2.05736e-14 	0 	0 	
0.085 -2.64518e-14 	0 	0 	
0.095 -1.17563e-14 	0 	0 	
0.105 1.17563e-14 	0 	0 	
0.115 1.17563e-14 	0 	0 	
0.125 -1.17563e-14 	0 	0 	
0.135 -5.58426e-14 	0 	0 	
0.145 -9.99289e-14 	-5.54717e-30 	0 	
0.155 -1.26381e-13 	0 	0 	
0.165 -1.58711e-13 	0 	0 	
0.175 -1.96919e-13 	0 	0 	
0.185 -1.91041e-13 	0 	0 	
0.195 -1.46954e-13 	0 	0 	
0.205 -1.11685e-13 	0 	0 	
0.215 -9.69899e-14 	0 	0 	
0.225 -5.87818e-14 	0 	0 	
0.235 1.76345e-14 	1.10943e-29 	0 	
0.245 5.58427e-14 	0 	0 	
0.255 3.82081e-14 	0 	0 	
0.265 2.35127e-14 	0 	0 	
0.275 4.40863e-14 	0 	0 	
0.285 6.17208e-14 	0 	0 	
0.295 3.52691e-14 	0 	0 	
0.305 5.87818e-15 	0 	0 	
0.315 -2.93907e-15 	0 	0 	
0.325 2.9391e-15 	0 	0 	
0.335 8.81725e-15 	0 	0 	
0.345 -2.9391e-15 	0 	0 	
0.355 -1.46954e-14 	0 	0 	
0.365 0.248154 	0 	0 	
0.375 3.29956 	0 	0 	
0.385 12.7784 	0 	0 	
0.395 28.2724 	0 	0 	
0.405 46.7016 	0 	0 	
0.415 66.1163 	0 	0 	
0.425 85.3463 	0 	0 	
0.435 102.978 	0 	0 	
0.445 116.897 	0 	0 	
0.455 125.563 	0 	0 	
0.465 129.589 	0 	0 	
0.475 130.698 	0 	0 	
0.485 130.413 	0 	0 	
0.495 129.858 	0 	0 	
0.505 129.632 	0 	0 	
0.515 129.8 	0 	0 	
0.525 130.198 	0 	0 	
0.535 130.603 	0 	0 	
0.545 130.725 	0 	0 	
0.555 130.579 	0 	0 	
0.565 130.267 	0 	0 	
0.575 129.681 	-3.39029e-30 	0 	
0.585 129.237 	-2.71003e-30 	0 	
0.595 129.589 	0 	0 	
0.605 129.792 	0 	0 	
0.615 128.851 	0 	0 	
0.625 123.859 	0 	0 	
0.635 103.391 	0 	0 	
0.645 61.8477 	0 	0 	
0.655 20.778 	0 	0 	
0.665 2.526 	0 	0 	
0.675 2.42475e-14 	0 	0 	
0.685 4.84949e-14 	0 	0 	
0.695 4.84949e-14 	0 	0 	
0.705 5.06992e-14 	0 	0 	
0.715 5.29036e-14 	0 	0 	
0.725 6.61295e-14 	0 	0 	
0.735 8.81728e-14 	0 	0 	
0.745 6.61295e-14 	0 	0 	
0.755 2.42475e-14 	0 	0 	
0.765 -8.81727e-15 	0 	0 	
0.775 -3.08604e-14 	0 	0 	
0.785 -4.1882e-14 	0 	0 	
0.795 -5.29035e-14 	0 	0 	
0.805 -3.74733e-14 	0 	0 	
0.815 -1.32259e-14 	-8.32077e-30 	0 	
0.825 -1.76345e-14 	0 	0 	
0.835 -3.30647e-14 	0 	0 	
0.845 -3.5269e-14 	0 	0 	
0.855 -1.32259e-14 	0 	0 	
0.865 1.32259e-14 	0 	0 	
0.875 8.81725e-15 	0 	0 	
0.885 -3.96778e-14 	0 	0 	
0.895 -7.71512e-14 	0 	0 	
0.905 -5.06993e-14 	0 	0 	
0.915 -2.86561e-14 	0 	0 	
0.925 -3.5269e-14 	0 	0 	
0.935 -1.32259e-14 	0 	0 	
0.945 4.62906e-14 	0 	0 	
0.955 1.14624e-13 	0 	0 	
0.965 1.30054e-13 	0 	0 	
0.975 9.25811e-14 	0 	0 	
0.985 6.61294e-14 	0 	0 	
0.995 4.89007e-14 	0 	0 	
