0.005 -8.3762e-15 	0 	0 	
0.015 2.17789e-14 	0 	0 	
0.025 6.70112e-14 	0 	0 	
0.035 9.21406e-14 	0 	0 	
0.045 1.64177e-13 	0 	0 	
0.055 1.17271e-14 	0 	0 	
0.065 3.01548e-14 	0 	0 	
0.075 -6.70113e-14 	0 	0 	
0.085 -1.8428e-14 	0 	0 	
0.095 1.28997e-13 	0 	0 	
0.105 3.35056e-14 	0 	0 	
0.115 1.84281e-14 	0 	0 	
0.125 -1.59152e-13 	0 	0 	
0.135 3.35055e-15 	0 	0 	
0.145 -9.88414e-14 	0 	0 	
0.155 -1.00514e-14 	0 	0 	
0.165 -1.28996e-13 	0 	0 	
0.175 5.02584e-14 	0 	0 	
0.185 -2.17788e-14 	0 	0 	
0.195 -1.75904e-13 	0 	0 	
0.205 8.54394e-14 	0 	0 	
0.215 -1.17271e-14 	0 	0 	
0.225 3.35054e-14 	0 	0 	
0.235 -1.59151e-13 	0 	0 	
0.245 -2.17786e-14 	0 	0 	
0.255 2.17785e-14 	0 	0 	
0.265 1.28997e-13 	0 	0 	
0.275 -1.67526e-14 	0 	0 	
0.285 -2.34536e-14 	0 	0 	
0.295 -8.5439e-14 	0 	0 	
0.305 -1.69203e-13 	0 	0 	
0.315 -1.8428e-14 	0 	0 	
0.325 -8.3764e-15 	0 	0 	
0.335 -1.87631e-13 	0 	0 	
0.345 -1.17269e-14 	0 	0 	
0.355 -3.85316e-14 	0 	0 	
0.365 2.51292e-14 	0 	0 	
0.375 -8.37641e-14 	0 	0 	
0.385 4.18821e-14 	0 	0 	
0.395 2.20587e-09 	0 	0 	
0.405 2.11668e-05 	0 	0 	
0.415 0.00517172 	0 	0 	
0.425 0.208097 	0 	0 	
0.435 2.51703 	0 	0 	
0.445 12.7015 	0 	0 	
0.455 35.1918 	0 	0 	
0.465 68.0452 	8.69065e-31 	0 	
0.475 103.879 	0 	0 	
0.485 126.844 	0 	0 	
0.495 130.208 	0 	0 	
0.505 130.177 	0 	0 	
0.515 130.139 	0 	0 	
0.525 130.105 	0 	0 	
0.535 130.029 	0 	0 	
0.545 129.079 	0 	0 	
0.555 117.904 	0 	0 	
0.565 61.7906 	0 	0 	
0.575 4.62535 	0 	0 	
0.585 0.062702 	0 	0 	
0.595 0.000161704 	0 	0 	
0.605 1.13718e-08 	0 	0 	
0.615 -6.28229e-15 	0 	0 	
0.625 -3.76939e-14 	0 	0 	
0.635 2.51292e-14 	0 	0 	
0.645 -1.50776e-14 	0 	0 	
0.655 9.17215e-14 	0 	0 	
0.665 -2.01035e-14 	0 	0 	
0.675 -3.76939e-14 	0 	0 	
0.685 -1.11825e-13 	0 	0 	
0.695 -7.53875e-14 	0 	0 	
0.705 2.51295e-14 	0 	0 	
0.715 3.26677e-14 	0 	0 	
0.725 -6.28213e-15 	0 	0 	
0.735 9.17213e-14 	0 	0 	
0.745 1.63342e-14 	0 	0 	
0.755 -6.28233e-15 	0 	0 	
0.765 -4.64889e-14 	0 	0 	
0.775 1.13082e-13 	0 	0 	
0.785 5.90537e-14 	0 	0 	
0.795 -5.40279e-14 	0 	0 	
0.805 -3.76935e-15 	0 	0 	
0.815 -6.40795e-14 	0 	0 	
0.825 1.88468e-14 	0 	0 	
0.835 -2.01034e-14 	0 	0 	
0.845 8.29265e-14 	0 	0 	
0.855 4.90019e-14 	0 	0 	
0.865 6.28229e-14 	0 	0 	
0.875 1.25646e-13 	0 	0 	
0.885 6.15667e-14 	0 	0 	
0.895 1.00515e-14 	0 	0 	
0.905 1.38209e-14 	0 	0 	
0.915 7.03617e-14 	0 	0 	
0.925 4.39759e-14 	0 	0 	
0.935 -5.02585e-14 	0 	0 	
0.945 -2.88986e-14 	0 	0 	
0.955 -8.167e-14 	0 	0 	
0.965 5.40274e-14 	0 	0 	
0.975 -1.25646e-14 	0 	0 	
0.985 -1.25648e-14 	0 	0 	
0.995 -2.88986e-14 	0 	0 	
