0.005 4.90141e-14 	0 	0 	
0.015 8.22944e-14 	0 	0 	
0.025 9.99288e-14 	0 	0 	
0.035 9.11115e-14 	0 	0 	
0.045 3.52689e-14 	0 	0 	
0.055 -2.35127e-14 	0 	0 	
0.065 -2.93909e-14 	0 	0 	
0.075 -2.05736e-14 	0 	0 	
0.085 -2.64518e-14 	0 	0 	
0.095 -1.17563e-14 	0 	0 	
0.105 1.17563e-14 	0 	0 	
0.115 1.17563e-14 	0 	0 	
0.125 -1.17563e-14 	0 	0 	
0.135 -5.58426e-14 	0 	0 	
0.145 -9.99289e-14 	-3.91565e-30 	0 	
0.155 -1.32259e-13 	0 	0 	
0.165 -1.73406e-13 	0 	0 	
0.175 -2.05736e-13 	0 	0 	
0.185 -1.76345e-13 	0 	0 	
0.195 -9.11118e-14 	0 	0 	
0.205 -1.46955e-14 	0 	0 	
0.215 2.35126e-14 	0 	0 	
0.225 5.87817e-14 	0 	0 	
0.235 8.22944e-14 	7.83129e-30 	0 	
0.245 6.46599e-14 	0 	0 	
0.255 4.99644e-14 	0 	0 	
0.265 4.40863e-14 	0 	0 	
0.275 1.76345e-14 	0 	0 	
0.285 0 	0 	0 	
0.295 0 	0 	0 	
0.305 0 	0 	0 	
0.315 -2.93907e-15 	0 	0 	
0.325 2.9391e-15 	0 	0 	
0.335 8.81725e-15 	0 	0 	
0.345 -2.9391e-15 	0 	0 	
0.355 -5.87818e-15 	0 	0 	
0.365 -2.93907e-15 	0 	0 	
0.375 -2.64517e-14 	0 	0 	
0.385 -5.58426e-14 	0 	0 	
0.395 -6.46599e-14 	0 	0 	
0.405 2.08634 	0 	0 	
0.415 11.1727 	0 	0 	
0.425 29.1572 	0 	0 	
0.435 52.5985 	0 	0 	
0.445 77.4466 	0 	0 	
0.455 100.58 	0 	0 	
0.465 117.67 	0 	0 	
0.475 126.631 	0 	0 	
0.485 130.342 	0 	0 	
0.495 131.384 	0 	0 	
0.505 130.998 	0 	0 	
0.515 130.304 	0 	0 	
0.525 129.66 	0 	0 	
0.535 129.122 	0 	0 	
0.545 129.001 	0 	0 	
0.555 129.918 	0 	0 	
0.565 130.538 	0 	0 	
0.575 129.288 	-2.68998e-30 	0 	
0.585 122.109 	-3.41507e-31 	0 	
0.595 96.6209 	0 	0 	
0.605 52.1158 	0 	0 	
0.615 14.5861 	0 	0 	
0.625 1.0812 	0 	0 	
0.635 -9.03767e-14 	0 	0 	
0.645 -3.74733e-14 	0 	0 	
0.655 1.10216e-14 	0 	0 	
0.665 -1.10215e-14 	0 	0 	
0.675 -3.30647e-14 	0 	0 	
0.685 4.40863e-15 	0 	0 	
0.695 5.29035e-14 	0 	0 	
0.705 6.83338e-14 	0 	0 	
0.715 5.73122e-14 	0 	0 	
0.725 6.61295e-14 	0 	0 	
0.735 8.81728e-14 	0 	0 	
0.745 6.61295e-14 	0 	0 	
0.755 2.42475e-14 	0 	0 	
0.765 4.40863e-15 	0 	0 	
0.775 -4.40862e-15 	0 	0 	
0.785 -2.20431e-14 	0 	0 	
0.795 -2.64518e-14 	0 	0 	
0.805 2.2043e-15 	0 	0 	
0.815 2.42475e-14 	-5.87348e-30 	0 	
0.825 1.98389e-14 	0 	0 	
0.835 6.61295e-15 	0 	0 	
0.845 0 	0 	0 	
0.855 -6.61295e-15 	0 	0 	
0.865 -3.96776e-14 	0 	0 	
0.875 -7.0538e-14 	0 	0 	
0.885 -6.83337e-14 	0 	0 	
0.895 -5.73122e-14 	0 	0 	
0.905 -3.5269e-14 	0 	0 	
0.915 -2.20432e-14 	0 	0 	
0.925 -2.42475e-14 	0 	0 	
0.935 -6.61295e-15 	0 	0 	
0.945 1.98388e-14 	0 	0 	
0.955 4.40863e-14 	0 	0 	
0.965 6.61294e-14 	0 	0 	
0.975 7.27424e-14 	0 	0 	
0.985 6.61294e-14 	0 	0 	
0.995 4.89007e-14 	0 	0 	
