0.005 4.90141e-14 	0 	0 	
0.015 8.22944e-14 	0 	0 	
0.025 9.99288e-14 	0 	0 	
0.035 9.11115e-14 	0 	0 	
0.045 3.52689e-14 	0 	0 	
0.055 -2.35127e-14 	0 	0 	
0.065 -2.93909e-14 	0 	0 	
0.075 -2.05736e-14 	0 	0 	
0.085 -2.64518e-14 	0 	0 	
0.095 -1.17563e-14 	0 	0 	
0.105 1.17563e-14 	0 	0 	
0.115 1.17563e-14 	0 	0 	
0.125 -1.17563e-14 	0 	0 	
0.135 -5.58426e-14 	0 	0 	
0.145 -9.99289e-14 	-6.36293e-30 	0 	
0.155 -1.26381e-13 	0 	0 	
0.165 -1.55771e-13 	0 	0 	
0.175 -1.88101e-13 	0 	0 	
0.185 -1.76345e-13 	0 	0 	
0.195 -1.2932e-13 	0 	0 	
0.205 -8.81725e-14 	0 	0 	
0.215 -5.58427e-14 	0 	0 	
0.225 -4.11472e-14 	0 	0 	
0.235 -4.70254e-14 	1.27259e-29 	0 	
0.245 -6.75989e-14 	0 	0 	
0.255 -7.34771e-14 	0 	0 	
0.265 -2.35127e-14 	0 	0 	
0.275 4.99644e-14 	0 	0 	
0.285 7.93553e-14 	0 	0 	
0.295 4.99645e-14 	0 	0 	
0.305 1.17564e-14 	0 	0 	
0.315 -2.93907e-15 	0 	0 	
0.325 2.9391e-15 	0 	0 	
0.335 2.05736e-14 	0 	0 	
0.345 0.0168488 	0 	0 	
0.355 1.58492 	0 	0 	
0.365 8.03059 	0 	0 	
0.375 20.3409 	0 	0 	
0.385 36.1432 	0 	0 	
0.395 53.2844 	0 	0 	
0.405 70.8218 	0 	0 	
0.415 88.0012 	0 	0 	
0.425 103.742 	0 	0 	
0.435 116.547 	0 	0 	
0.445 124.963 	0 	0 	
0.455 128.894 	0 	0 	
0.465 130.111 	0 	0 	
0.475 130.422 	0 	0 	
0.485 130.47 	0 	0 	
0.495 130.381 	0 	0 	
0.505 130.19 	0 	0 	
0.515 129.928 	0 	0 	
0.525 129.769 	0 	0 	
0.535 129.841 	0 	0 	
0.545 130.129 	0 	0 	
0.555 130.485 	0 	0 	
0.565 130.641 	0 	0 	
0.575 130.593 	-3.3787e-30 	0 	
0.585 130.418 	-2.70557e-30 	0 	
0.595 129.939 	0 	0 	
0.605 129.461 	0 	0 	
0.615 129.573 	0 	0 	
0.625 129.526 	0 	0 	
0.635 128.705 	0 	0 	
0.645 124.653 	0 	0 	
0.655 106.314 	0 	0 	
0.665 66.4393 	0 	0 	
0.675 24.1729 	0 	0 	
0.685 3.48343 	0 	0 	
0.695 4.1882e-14 	0 	0 	
0.705 5.51079e-14 	0 	0 	
0.715 5.51079e-14 	0 	0 	
0.725 6.61295e-14 	0 	0 	
0.735 7.27426e-14 	0 	0 	
0.745 2.86562e-14 	0 	0 	
0.755 -1.10216e-14 	0 	0 	
0.765 -2.86561e-14 	0 	0 	
0.775 -4.1882e-14 	0 	0 	
0.785 -5.06992e-14 	0 	0 	
0.795 -6.39251e-14 	0 	0 	
0.805 -5.51079e-14 	0 	0 	
0.815 -2.86561e-14 	-9.54439e-30 	0 	
0.825 -1.76345e-14 	0 	0 	
0.835 -6.61293e-15 	0 	0 	
0.845 1.98388e-14 	0 	0 	
0.855 3.08604e-14 	0 	0 	
0.865 1.54302e-14 	0 	0 	
0.875 -1.32259e-14 	0 	0 	
0.885 -5.95164e-14 	0 	0 	
0.895 -9.2581e-14 	0 	0 	
0.905 -7.27423e-14 	0 	0 	
0.915 -1.98388e-14 	0 	0 	
0.925 2.20431e-14 	0 	0 	
0.935 3.5269e-14 	0 	0 	
0.945 5.95165e-14 	0 	0 	
0.955 1.1242e-13 	0 	0 	
0.965 1.2785e-13 	0 	0 	
0.975 9.25811e-14 	0 	0 	
0.985 6.61294e-14 	0 	0 	
0.995 4.89007e-14 	0 	0 	
