0.005 4.90141e-14 	0 	0 	
0.015 8.52335e-14 	0 	0 	
0.025 1.05807e-13 	0 	0 	
0.035 1.14624e-13 	0 	0 	
0.045 1.17563e-13 	0 	0 	
0.055 9.40504e-14 	0 	0 	
0.065 4.40862e-14 	0 	0 	
0.075 -1.46954e-14 	0 	0 	
0.085 -6.17208e-14 	0 	0 	
0.095 -7.64162e-14 	0 	0 	
0.105 -1.08746e-13 	0 	0 	
0.115 -1.49893e-13 	0 	0 	
0.125 -1.64589e-13 	0 	0 	
0.135 -1.9398e-13 	0 	0 	
0.145 -2.2631e-13 	-3.26305e-31 	0 	
0.155 -2.32188e-13 	0 	0 	
0.165 -2.11615e-13 	0 	0 	
0.175 -1.6165e-13 	0 	0 	
0.185 -9.11117e-14 	0 	0 	
0.195 -1.17563e-14 	0 	0 	
0.205 2.93909e-14 	0 	0 	
0.215 2.64518e-14 	0 	0 	
0.225 3.82081e-14 	0 	0 	
0.235 4.99645e-14 	6.52609e-31 	0 	
0.245 6.17208e-14 	0 	0 	
0.255 1.05807e-13 	0 	0 	
0.265 1.35198e-13 	0 	0 	
0.275 1.05807e-13 	0 	0 	
0.285 7.34772e-14 	0 	0 	
0.295 7.05381e-14 	0 	0 	
0.305 6.46599e-14 	0 	0 	
0.315 5.58427e-14 	0 	0 	
0.325 4.70254e-14 	0 	0 	
0.335 3.5269e-14 	0 	0 	
0.345 -1.17562e-14 	0 	0 	
0.355 -9.11114e-14 	0 	0 	
0.365 -1.23441e-13 	0 	0 	
0.375 -1.08746e-13 	0 	0 	
0.385 1.33679 	0 	0 	
0.395 7.7672 	0 	0 	
0.405 21.413 	0 	0 	
0.415 39.9114 	0 	0 	
0.425 60.1416 	0 	0 	
0.435 80.3367 	0 	0 	
0.445 99.03 	0 	0 	
0.455 114.398 	0 	0 	
0.465 124.853 	0 	0 	
0.475 129.923 	0 	0 	
0.485 130.86 	0 	0 	
0.495 130.25 	0 	0 	
0.505 129.792 	0 	0 	
0.515 129.884 	0 	0 	
0.525 130.303 	0 	0 	
0.535 130.515 	0 	0 	
0.545 130.266 	0 	0 	
0.555 129.801 	0 	0 	
0.565 129.634 	0 	0 	
0.575 129.963 	-1.69489e-30 	0 	
0.585 130.342 	-5.07567e-31 	0 	
0.595 129.635 	0 	0 	
0.605 123.333 	0 	0 	
0.615 99.8429 	0 	0 	
0.625 56.267 	0 	0 	
0.635 16.857 	0 	0 	
0.645 1.5117 	0 	0 	
0.655 -1.76345e-14 	0 	0 	
0.665 -5.06992e-14 	0 	0 	
0.675 -4.62906e-14 	0 	0 	
0.685 1.98388e-14 	0 	0 	
0.695 5.95165e-14 	0 	0 	
0.705 3.74734e-14 	0 	0 	
0.715 3.5269e-14 	0 	0 	
0.725 7.27424e-14 	0 	0 	
0.735 8.81726e-14 	0 	0 	
0.745 7.49467e-14 	0 	0 	
0.755 4.84949e-14 	0 	0 	
0.765 2.64518e-14 	0 	0 	
0.775 1.32259e-14 	0 	0 	
0.785 -1.98388e-14 	0 	0 	
0.795 -5.06992e-14 	0 	0 	
0.805 -4.1882e-14 	0 	0 	
0.815 -1.32259e-14 	-4.89455e-31 	0 	
0.825 6.61295e-15 	0 	0 	
0.835 2.42475e-14 	0 	0 	
0.845 4.1882e-14 	0 	0 	
0.855 5.06993e-14 	0 	0 	
0.865 4.1882e-14 	0 	0 	
0.875 4.40863e-15 	0 	0 	
0.885 -4.62906e-14 	0 	0 	
0.895 -7.05381e-14 	0 	0 	
0.905 -4.1882e-14 	0 	0 	
0.915 8.81725e-15 	0 	0 	
0.925 2.86561e-14 	0 	0 	
0.935 2.20431e-14 	0 	0 	
0.945 1.54302e-14 	0 	0 	
0.955 1.76345e-14 	0 	0 	
0.965 3.5269e-14 	0 	0 	
0.975 5.51078e-14 	0 	0 	
0.985 4.84949e-14 	0 	0 	
0.995 2.02117e-14 	0 	0 	
