0.005 1.63002e-13 	0 	0 	
0.015 -2.9479e-14 	0 	0 	
0.025 2.60109e-14 	0 	0 	
0.035 -6.41605e-14 	0 	0 	
0.045 -6.24262e-14 	0 	0 	
0.055 -3.2303e-26 	0 	0 	
0.065 2.25427e-14 	0 	0 	
0.075 4.33517e-14 	0 	0 	
0.085 -2.41035e-13 	9.62599e-30 	0 	
0.095 -3.4681e-14 	0 	0 	
0.105 1.69938e-13 	0 	0 	
0.115 1.36991e-13 	-4.81299e-30 	0 	
0.125 5.20219e-14 	4.57234e-30 	0 	
0.135 5.89581e-14 	0 	0 	
0.145 -1.73407e-14 	0 	0 	
0.155 1.73395e-15 	0 	0 	
0.165 -8.15007e-14 	0 	0 	
0.175 -6.93625e-14 	0 	0 	
0.185 6.76282e-14 	0 	0 	
0.195 -9.36391e-14 	0 	0 	
0.205 9.53732e-14 	0 	0 	
0.215 2.35054e-24 	0 	0 	
0.225 -1.30055e-13 	0 	0 	
0.235 -1.38726e-14 	0 	0 	
0.245 1.42193e-13 	0 	0 	
0.255 -9.53735e-14 	0 	0 	
0.265 -7.10963e-14 	0 	0 	
0.275 -3.46812e-14 	0 	0 	
0.285 -2.08087e-14 	0 	0 	
0.295 7.28306e-14 	0 	0 	
0.305 2.02885e-13 	0 	0 	
0.315 9.88413e-14 	0 	0 	
0.325 -3.46812e-14 	0 	0 	
0.335 -6.93625e-14 	0 	0 	
0.345 -1.82076e-13 	0 	0 	
0.355 -7.28305e-14 	0 	0 	
0.365 9.36394e-14 	0 	0 	
0.375 5.20219e-14 	0 	0 	
0.385 8.6701e-15 	0 	0 	
0.395 1.24684e-07 	0 	0 	
0.405 0.000194048 	0 	0 	
0.415 0.0222522 	0 	0 	
0.425 0.559675 	0 	0 	
0.435 4.71997 	0 	0 	
0.445 18.3269 	0 	0 	
0.455 43.516 	0 	0 	
0.465 76.7731 	0 	0 	
0.475 110.129 	0 	0 	
0.485 128.33 	0 	0 	
0.495 130.21 	0 	0 	
0.505 130.172 	0 	0 	
0.515 130.136 	0 	0 	
0.525 130.104 	0 	0 	
0.535 130.062 	0 	0 	
0.545 129.57 	0 	0 	
0.555 119.156 	0 	0 	
0.565 76.0926 	0 	0 	
0.575 17.0729 	0 	0 	
0.585 0.376049 	0 	0 	
0.595 0.00187606 	0 	0 	
0.605 7.96704e-07 	0 	0 	
0.615 -6.63276e-14 	0 	0 	
0.625 1.30056e-14 	0 	0 	
0.635 7.93334e-14 	0 	0 	
0.645 -1.06645e-13 	0 	0 	
0.655 2.6011e-14 	0 	0 	
0.665 9.49398e-14 	0 	0 	
0.675 1.10546e-13 	0 	0 	
0.685 4.81204e-14 	0 	0 	
0.695 5.2022e-14 	0 	0 	
0.705 5.85247e-14 	0 	0 	
0.715 -7.28303e-14 	0 	0 	
0.725 1.30055e-14 	0 	0 	
0.735 -1.30041e-15 	0 	0 	
0.745 1.17049e-14 	0 	0 	
0.755 -8.71366e-14 	0 	0 	
0.765 3.25138e-14 	0 	0 	
0.775 1.30056e-14 	0 	0 	
0.785 1.17049e-14 	0 	0 	
0.795 2.341e-14 	0 	0 	
0.805 2.08088e-14 	0 	0 	
0.815 -8.06342e-14 	0 	0 	
0.825 3.25136e-14 	0 	0 	
0.835 1.1835e-13 	0 	0 	
0.845 -1.32656e-13 	0 	0 	
0.855 1.43061e-14 	0 	0 	
0.865 8.84372e-14 	0 	0 	
0.875 1.17049e-13 	0 	0 	
0.885 5.59232e-14 	0 	0 	
0.895 1.26153e-13 	0 	0 	
0.905 7.15299e-14 	0 	0 	
0.915 -4.81204e-14 	0 	0 	
0.925 -2.60113e-14 	0 	0 	
0.935 -4.55191e-14 	0 	0 	
0.945 -7.54315e-14 	0 	0 	
0.955 4.94209e-14 	0 	0 	
0.965 -5.98248e-14 	0 	0 	
0.975 5.20219e-14 	0 	0 	
0.985 -6.2426e-14 	0 	0 	
0.995 4.42187e-14 	0 	0 	
