0.005 0 	0 	0 	
0.015 0 	0 	0 	
0.025 0 	0 	0 	
0.035 5.87817e-15 	0 	0 	
0.045 2.05736e-14 	0 	0 	
0.055 2.93908e-14 	0 	0 	
0.065 1.76345e-14 	0 	0 	
0.075 -2.35127e-14 	0 	0 	
0.085 -4.99645e-14 	0 	0 	
0.095 -2.35127e-14 	0 	0 	
0.105 8.81725e-15 	0 	0 	
0.115 3.23299e-14 	0 	0 	
0.125 4.40863e-14 	0 	0 	
0.135 2.05736e-14 	0 	0 	
0.145 -1.76345e-14 	-3.26305e-31 	0 	
0.155 -4.40863e-14 	0 	0 	
0.165 -5.29035e-14 	0 	0 	
0.175 -4.99645e-14 	0 	0 	
0.185 -2.05736e-14 	0 	0 	
0.195 3.5269e-14 	0 	0 	
0.205 4.99645e-14 	0 	0 	
0.215 1.76345e-14 	0 	0 	
0.225 -2.93907e-15 	0 	0 	
0.235 -5.87815e-15 	6.52609e-31 	0 	
0.245 -5.87815e-15 	0 	0 	
0.255 2.49999e-20 	0 	0 	
0.265 8.81727e-15 	0 	0 	
0.275 5.87818e-15 	0 	0 	
0.285 0 	0 	0 	
0.295 0 	0 	0 	
0.305 0 	0 	0 	
0.315 -2.93907e-15 	0 	0 	
0.325 2.9391e-15 	0 	0 	
0.335 1.46954e-14 	0 	0 	
0.345 2.93908e-15 	0 	0 	
0.355 -1.17564e-14 	0 	0 	
0.365 -5.87818e-15 	0 	0 	
0.375 -2.93907e-15 	0 	0 	
0.385 -1.17563e-14 	0 	0 	
0.395 -1.76345e-14 	0 	0 	
0.405 2.49998e-20 	0 	0 	
0.415 2.05736e-14 	0 	0 	
0.425 1.17564e-14 	0 	0 	
0.435 0 	0 	0 	
0.445 0 	0 	0 	
0.455 0 	0 	0 	
0.465 0.30459 	0 	0 	
0.475 7.97085 	0 	0 	
0.485 37.2952 	0 	0 	
0.495 84.0883 	0 	0 	
0.505 107.768 	0 	0 	
0.515 78.6997 	0 	0 	
0.525 29.6644 	0 	0 	
0.535 4.27368 	0 	0 	
0.545 0 	0 	0 	
0.555 0 	0 	0 	
0.565 -6.61295e-15 	0 	0 	
0.575 -6.61295e-15 	0 	0 	
0.585 6.61295e-15 	0 	0 	
0.595 6.61295e-15 	0 	0 	
0.605 -6.61295e-15 	0 	0 	
0.615 -8.81728e-15 	0 	0 	
0.625 -4.40865e-15 	0 	0 	
0.635 -8.81727e-15 	0 	0 	
0.645 -1.63577e-25 	0 	0 	
0.655 8.81728e-15 	0 	0 	
0.665 -2.64517e-14 	0 	0 	
0.675 -5.51078e-14 	0 	0 	
0.685 -1.54302e-14 	0 	0 	
0.695 3.96777e-14 	0 	0 	
0.705 4.84949e-14 	0 	0 	
0.715 2.42475e-14 	0 	0 	
0.725 4.40863e-15 	0 	0 	
0.735 0 	0 	0 	
0.745 0 	0 	0 	
0.755 0 	0 	0 	
0.765 0 	0 	0 	
0.775 -4.40862e-15 	0 	0 	
0.785 -2.42474e-14 	0 	0 	
0.795 -4.1882e-14 	0 	0 	
0.805 -2.20432e-14 	0 	0 	
0.815 2.42475e-14 	-4.89455e-31 	0 	
0.825 4.40863e-14 	0 	0 	
0.835 2.20432e-14 	0 	0 	
0.845 2.20432e-15 	0 	0 	
0.855 -8.81725e-15 	0 	0 	
0.865 -1.76345e-14 	0 	0 	
0.875 -2.2043e-15 	0 	0 	
0.885 1.54302e-14 	0 	0 	
0.895 1.10216e-14 	0 	0 	
0.905 5.43285e-26 	0 	0 	
0.915 -1.76345e-14 	0 	0 	
0.925 -2.86561e-14 	0 	0 	
0.935 -2.20433e-15 	0 	0 	
0.945 2.64518e-14 	0 	0 	
0.955 1.98388e-14 	0 	0 	
0.965 4.40863e-15 	0 	0 	
0.975 0 	0 	0 	
0.985 0 	0 	0 	
0.995 0 	0 	0 	
