0.005 5.19531e-14 	0 	0 	
0.015 9.11116e-14 	0 	0 	
0.025 1.08746e-13 	0 	0 	
0.035 1.17563e-13 	0 	0 	
0.045 1.20503e-13 	0 	0 	
0.055 9.40508e-14 	0 	0 	
0.065 4.70253e-14 	0 	0 	
0.075 -1.17563e-14 	0 	0 	
0.085 -7.0538e-14 	0 	0 	
0.095 -1.02868e-13 	0 	0 	
0.105 -1.26381e-13 	0 	0 	
0.115 -1.41076e-13 	0 	0 	
0.125 -1.55771e-13 	0 	0 	
0.135 -1.9398e-13 	0 	0 	
0.145 -2.2631e-13 	-3.26305e-31 	0 	
0.155 -2.38066e-13 	0 	0 	
0.165 -2.2631e-13 	0 	0 	
0.175 -1.73406e-13 	0 	0 	
0.185 -9.40507e-14 	0 	0 	
0.195 -1.46954e-14 	0 	0 	
0.205 2.64518e-14 	0 	0 	
0.215 2.64518e-14 	0 	0 	
0.225 3.5269e-14 	0 	0 	
0.235 4.70254e-14 	6.52609e-31 	0 	
0.245 6.46598e-14 	0 	0 	
0.255 1.02868e-13 	0 	0 	
0.265 1.2932e-13 	0 	0 	
0.275 1.17563e-13 	0 	0 	
0.285 8.81726e-14 	0 	0 	
0.295 7.34772e-14 	0 	0 	
0.305 6.46599e-14 	0 	0 	
0.315 5.58427e-14 	0 	0 	
0.325 5.29035e-14 	0 	0 	
0.335 4.70254e-14 	0 	0 	
0.345 -5.87807e-15 	0 	0 	
0.355 -9.11114e-14 	0 	0 	
0.365 -1.2932e-13 	0 	0 	
0.375 0.137411 	0 	0 	
0.385 2.63991 	0 	0 	
0.395 11.3372 	0 	0 	
0.405 26.607 	0 	0 	
0.415 45.4344 	0 	0 	
0.425 65.3453 	0 	0 	
0.435 84.8784 	0 	0 	
0.445 102.654 	0 	0 	
0.455 116.815 	0 	0 	
0.465 125.986 	0 	0 	
0.475 130.262 	0 	0 	
0.485 130.974 	0 	0 	
0.495 130.297 	0 	0 	
0.505 129.756 	0 	0 	
0.515 129.772 	0 	0 	
0.525 130.19 	0 	0 	
0.535 130.495 	0 	0 	
0.545 130.379 	0 	0 	
0.555 129.964 	0 	0 	
0.565 129.671 	0 	0 	
0.575 129.825 	-1.69591e-30 	0 	
0.585 130.198 	-5.07956e-31 	0 	
0.595 130.067 	0 	0 	
0.605 127.18 	0 	0 	
0.615 112.529 	0 	0 	
0.625 75.9125 	0 	0 	
0.635 31.1193 	0 	0 	
0.645 5.44205 	0 	0 	
0.655 -1.32259e-14 	0 	0 	
0.665 -5.51078e-14 	0 	0 	
0.675 -5.51079e-14 	0 	0 	
0.685 1.54302e-14 	0 	0 	
0.695 6.39251e-14 	0 	0 	
0.705 4.1882e-14 	0 	0 	
0.715 3.08604e-14 	0 	0 	
0.725 6.83337e-14 	0 	0 	
0.735 8.59683e-14 	0 	0 	
0.745 7.27424e-14 	0 	0 	
0.755 5.06992e-14 	0 	0 	
0.765 3.30647e-14 	0 	0 	
0.775 2.20432e-14 	0 	0 	
0.785 -1.32259e-14 	0 	0 	
0.795 -4.62906e-14 	0 	0 	
0.805 -3.96777e-14 	0 	0 	
0.815 -1.32259e-14 	-4.89455e-31 	0 	
0.825 6.61295e-15 	0 	0 	
0.835 2.42475e-14 	0 	0 	
0.845 4.1882e-14 	0 	0 	
0.855 4.84949e-14 	0 	0 	
0.865 3.74734e-14 	0 	0 	
0.875 2.20431e-15 	0 	0 	
0.885 -4.62906e-14 	0 	0 	
0.895 -7.05381e-14 	0 	0 	
0.905 -4.1882e-14 	0 	0 	
0.915 4.40862e-15 	0 	0 	
0.925 1.98388e-14 	0 	0 	
0.935 2.20431e-14 	0 	0 	
0.945 2.64517e-14 	0 	0 	
0.955 2.64517e-14 	0 	0 	
0.965 3.08604e-14 	0 	0 	
0.975 4.62906e-14 	0 	0 	
0.985 5.29035e-14 	0 	0 	
0.995 2.94018e-14 	0 	0 	
