0.005 6.19852e-14 	0 	0 	
0.015 3.68563e-14 	0 	0 	
0.025 -2.51292e-14 	0 	0 	
0.035 1.1727e-14 	0 	0 	
0.045 1.34019e-14 	0 	0 	
0.055 -1.27321e-13 	0 	0 	
0.065 3.35056e-15 	0 	0 	
0.075 -9.21406e-14 	0 	0 	
0.085 6.03101e-14 	0 	0 	
0.095 -4.8583e-14 	0 	0 	
0.105 1.3402e-14 	0 	0 	
0.115 7.53876e-14 	0 	0 	
0.125 2.51295e-14 	0 	0 	
0.135 9.38154e-14 	0 	0 	
0.145 -1.34022e-13 	0 	0 	
0.155 3.3506e-14 	0 	0 	
0.165 -9.38158e-14 	0 	0 	
0.175 -5.02584e-14 	0 	0 	
0.185 7.03618e-14 	0 	0 	
0.195 1.8428e-14 	0 	0 	
0.205 1.75904e-13 	0 	0 	
0.215 -9.54909e-14 	0 	0 	
0.225 8.3764e-15 	0 	0 	
0.235 -1.54126e-13 	0 	0 	
0.245 7.53877e-14 	0 	0 	
0.255 3.35072e-15 	0 	0 	
0.265 1.67527e-15 	0 	0 	
0.275 3.35055e-14 	0 	0 	
0.285 -1.8428e-14 	0 	0 	
0.295 2.84797e-14 	0 	0 	
0.305 -1.23971e-13 	0 	0 	
0.315 -1.44074e-13 	0 	0 	
0.325 -1.67527e-14 	0 	0 	
0.335 5.02583e-15 	0 	0 	
0.345 4.35571e-14 	0 	0 	
0.355 3.01549e-14 	0 	0 	
0.365 -1.02192e-13 	0 	0 	
0.375 -4.18819e-14 	0 	0 	
0.385 -6.36607e-14 	0 	0 	
0.395 -3.35038e-15 	0 	0 	
0.405 1.50776e-14 	0 	0 	
0.415 4.02064e-14 	0 	0 	
0.425 -3.35054e-14 	0 	0 	
0.435 0.000551487 	0 	0 	
0.445 0.141802 	0 	0 	
0.455 3.29056 	0 	0 	
0.465 20.1514 	0 	0 	
0.475 57.8739 	0 	0 	
0.485 105.792 	0 	0 	
0.495 129.545 	0 	0 	
0.505 130.187 	0 	0 	
0.515 130.119 	0 	0 	
0.525 129.332 	0 	0 	
0.535 118.343 	0 	0 	
0.545 50.8301 	0 	0 	
0.555 1.75487 	0 	0 	
0.565 0.00373195 	0 	0 	
0.575 -1.00517e-13 	0 	0 	
0.585 -3.89503e-14 	0 	0 	
0.595 1.88469e-14 	0 	0 	
0.605 1.50775e-13 	0 	0 	
0.615 2.51293e-14 	0 	0 	
0.625 -2.51293e-14 	0 	0 	
0.635 -2.01034e-14 	0 	0 	
0.645 -1.50775e-14 	0 	0 	
0.655 1.06799e-13 	0 	0 	
0.665 4.77456e-14 	0 	0 	
0.675 -6.28229e-14 	0 	0 	
0.685 -2.26162e-14 	0 	0 	
0.695 -5.65406e-14 	0 	0 	
0.705 -2.51292e-14 	0 	0 	
0.715 -3.89502e-14 	0 	0 	
0.725 5.02585e-14 	0 	0 	
0.735 9.42347e-14 	0 	0 	
0.745 2.26162e-14 	0 	0 	
0.755 1.50775e-13 	0 	0 	
0.765 -1.4198e-13 	0 	0 	
0.775 3.14116e-14 	0 	0 	
0.785 -2.26162e-14 	0 	0 	
0.795 1.14338e-13 	0 	0 	
0.805 -5.27712e-14 	0 	0 	
0.815 -7.03616e-14 	0 	0 	
0.825 5.65408e-14 	0 	0 	
0.835 -9.80038e-14 	0 	0 	
0.845 1.15594e-13 	0 	0 	
0.855 7.03615e-14 	0 	0 	
0.865 -1.8847e-14 	0 	0 	
0.875 1.00517e-13 	0 	0 	
0.885 8.79501e-15 	0 	0 	
0.895 -5.27714e-14 	0 	0 	
0.905 -1.75906e-14 	0 	0 	
0.915 -3.2668e-14 	0 	0 	
0.925 -4.3976e-14 	0 	0 	
0.935 -5.15149e-14 	0 	0 	
0.945 -1.00517e-14 	0 	0 	
0.955 2.136e-14 	0 	0 	
0.965 -5.02584e-15 	0 	0 	
0.975 3.76936e-14 	0 	0 	
0.985 6.2824e-15 	0 	0 	
0.995 3.51808e-14 	0 	0 	
