0.005 -2.35127e-14 	0 	0 	
0.015 9.40507e-14 	0 	0 	
0.025 2.35126e-14 	0 	0 	
0.035 7.05383e-14 	0 	0 	
0.045 2.35127e-14 	0 	0 	
0.055 2.3513e-14 	0 	0 	
0.065 4.70254e-14 	0 	0 	
0.075 4.70255e-14 	0 	0 	
0.085 5.84959e-25 	0 	0 	
0.095 2.35127e-14 	0 	0 	
0.105 9.4051e-14 	0 	0 	
0.115 9.40507e-14 	0 	0 	
0.125 2.35127e-14 	0 	0 	
0.135 -2.35127e-14 	0 	0 	
0.145 9.4051e-14 	0 	0 	
0.155 -1.17563e-13 	0 	0 	
0.165 -4.70254e-14 	0 	0 	
0.175 -1.16947e-24 	0 	0 	
0.185 -7.05381e-14 	0 	0 	
0.195 -1.16949e-24 	0 	0 	
0.205 -2.35127e-14 	1.23995e-29 	0 	
0.215 4.70254e-14 	0 	0 	
0.225 -1.75342e-24 	0 	0 	
0.235 5.1963e-12 	0 	0 	
0.245 2.41028e-10 	0 	0 	
0.255 8.09459e-09 	0 	0 	
0.265 2.02907e-07 	0 	0 	
0.275 3.84209e-06 	0 	0 	
0.285 5.54472e-05 	0 	0 	
0.295 0.000613899 	0 	0 	
0.305 0.00523866 	0 	0 	
0.315 0.0345592 	0 	0 	
0.325 0.176666 	0 	0 	
0.335 0.702644 	0 	0 	
0.345 2.19585 	0 	0 	
0.355 5.50077 	0 	0 	
0.365 11.3861 	0 	0 	
0.375 20.1842 	0 	0 	
0.385 31.7234 	0 	0 	
0.395 45.5076 	0 	0 	
0.405 60.9084 	0 	0 	
0.415 77.2292 	0 	0 	
0.425 93.6138 	0 	0 	
0.435 108.792 	0 	0 	
0.445 120.812 	0 	0 	
0.455 127.716 	0 	0 	
0.465 129.928 	0 	0 	
0.475 130.205 	0 	0 	
0.485 130.193 	0 	0 	
0.495 130.172 	0 	0 	
0.505 130.155 	-7.39e-31 	0 	
0.515 130.141 	1.10921e-30 	0 	
0.525 130.129 	-1.48293e-30 	0 	
0.535 130.119 	-1.26174e-30 	0 	
0.545 130.109 	-1.22139e-30 	0 	
0.555 130.1 	0 	0 	
0.565 130.091 	0 	0 	
0.575 130.082 	3.19691e-30 	0 	
0.585 130.073 	3.04212e-30 	0 	
0.595 130.062 	3.71834e-30 	0 	
0.605 130.044 	3.88629e-30 	0 	
0.615 129.972 	-3.37907e-30 	0 	
0.625 129.597 	0 	0 	
0.635 127.786 	0 	0 	
0.645 120.425 	0 	0 	
0.655 96.6144 	0 	0 	
0.665 48.1978 	0 	0 	
0.675 10.6694 	0 	0 	
0.685 1.36637 	0 	0 	
0.695 0.138953 	0 	0 	
0.705 0.0118321 	0 	0 	
0.715 0.000830234 	0 	0 	
0.725 4.69825e-05 	0 	0 	
0.735 2.10272e-06 	0 	0 	
0.745 7.30831e-08 	0 	0 	
0.755 1.93677e-09 	-5.13929e-30 	0 	
0.765 3.83375e-11 	0 	0 	
0.775 4.58498e-13 	0 	0 	
0.785 -7.05379e-14 	0 	0 	
0.795 -1.30627e-24 	-5.01693e-30 	0 	
0.805 -5.29035e-14 	-5.26166e-30 	0 	
0.815 -1.76345e-14 	0 	0 	
0.825 -5.29035e-14 	0 	0 	
0.835 -1.05807e-13 	0 	0 	
0.845 -7.05379e-14 	0 	0 	
0.855 8.81725e-14 	0 	0 	
0.865 3.5269e-14 	0 	0 	
0.875 3.5269e-14 	0 	0 	
0.885 5.29035e-14 	0 	0 	
0.895 5.29035e-14 	0 	0 	
0.905 1.05807e-13 	0 	0 	
0.915 5.29035e-14 	0 	0 	
0.925 -1.76345e-14 	0 	0 	
0.935 3.5269e-14 	0 	0 	
0.945 -1.76345e-14 	0 	0 	
0.955 7.05381e-14 	0 	0 	
0.965 -1.76345e-14 	0 	0 	
0.975 -3.5269e-14 	0 	0 	
0.985 3.5269e-14 	0 	0 	
0.995 7.0538e-14 	0 	0 	
