0.005 1.75484e-24 	0 	0 	
0.015 9.4051e-14 	0 	0 	
0.025 2.35127e-14 	0 	0 	
0.035 4.70256e-14 	0 	0 	
0.045 9.40508e-14 	0 	0 	
0.055 7.05383e-14 	0 	0 	
0.065 -2.35127e-14 	0 	0 	
0.075 -2.35127e-14 	0 	0 	
0.085 -4.70255e-14 	0 	0 	
0.095 7.0538e-14 	0 	0 	
0.105 1.17563e-13 	0 	0 	
0.115 7.05381e-14 	0 	0 	
0.125 7.05381e-14 	0 	0 	
0.135 4.70253e-14 	0 	0 	
0.145 7.0538e-14 	0 	0 	
0.155 -1.17563e-13 	0 	0 	
0.165 2.35127e-14 	0 	0 	
0.175 -7.0538e-14 	0 	0 	
0.185 -2.35127e-14 	0 	0 	
0.195 -7.05383e-14 	0 	0 	
0.205 -4.70254e-14 	1.27259e-29 	0 	
0.215 4.70254e-14 	0 	0 	
0.225 6.58356e-13 	0 	0 	
0.235 3.77143e-11 	0 	0 	
0.245 1.40175e-09 	0 	0 	
0.255 3.89345e-08 	0 	0 	
0.265 8.1947e-07 	0 	0 	
0.275 1.31934e-05 	0 	0 	
0.285 0.000163641 	0 	0 	
0.295 0.00157171 	0 	0 	
0.305 0.0117302 	0 	0 	
0.315 0.0681833 	0 	0 	
0.325 0.309408 	0 	0 	
0.335 1.10212 	0 	0 	
0.345 3.12137 	0 	0 	
0.355 7.19393 	0 	0 	
0.365 13.9303 	0 	0 	
0.375 23.468 	0 	0 	
0.385 35.5131 	0 	0 	
0.395 49.5379 	0 	0 	
0.405 64.9303 	0 	0 	
0.415 81.0143 	0 	0 	
0.425 96.9278 	0 	0 	
0.435 111.36 	0 	0 	
0.445 122.366 	0 	0 	
0.455 128.29 	0 	0 	
0.465 130.018 	0 	0 	
0.475 130.206 	0 	0 	
0.485 130.19 	0 	0 	
0.495 130.17 	0 	0 	
0.505 130.154 	-4.92633e-31 	0 	
0.515 130.14 	1.10908e-30 	0 	
0.525 130.129 	-1.48204e-30 	0 	
0.535 130.119 	-1.25638e-30 	0 	
0.545 130.109 	-1.20675e-30 	0 	
0.555 130.101 	0 	0 	
0.565 130.092 	0 	0 	
0.575 130.084 	3.19038e-30 	0 	
0.585 130.075 	3.04139e-30 	0 	
0.595 130.065 	3.7184e-30 	0 	
0.605 130.052 	3.88636e-30 	0 	
0.615 130.013 	-3.71674e-30 	0 	
0.625 129.818 	0 	0 	
0.635 128.842 	0 	0 	
0.645 124.619 	0 	0 	
0.655 109.512 	0 	0 	
0.665 70.4666 	0 	0 	
0.675 22.2338 	0 	0 	
0.685 3.41984 	0 	0 	
0.695 0.382705 	0 	0 	
0.705 0.0358862 	0 	0 	
0.715 0.00281692 	0 	0 	
0.725 0.000181309 	0 	0 	
0.735 9.38081e-06 	0 	0 	
0.745 3.83236e-07 	0 	0 	
0.755 1.2152e-08 	-5.38402e-30 	0 	
0.765 2.93774e-10 	0 	0 	
0.775 5.14928e-12 	0 	0 	
0.785 -7.0538e-14 	0 	0 	
0.795 -3.52691e-14 	-5.13929e-30 	0 	
0.805 8.81725e-14 	-5.50638e-30 	0 	
0.815 -3.5269e-14 	0 	0 	
0.825 -8.81725e-14 	0 	0 	
0.835 -7.0538e-14 	0 	0 	
0.845 -1.76344e-14 	0 	0 	
0.855 5.29035e-14 	0 	0 	
0.865 -3.5269e-14 	0 	0 	
0.875 7.0538e-14 	0 	0 	
0.885 7.05381e-14 	0 	0 	
0.895 5.29035e-14 	0 	0 	
0.905 8.81725e-14 	0 	0 	
0.915 7.0538e-14 	0 	0 	
0.925 -5.29035e-14 	0 	0 	
0.935 3.5269e-14 	0 	0 	
0.945 -6.31089e-30 	0 	0 	
0.955 -1.76345e-14 	0 	0 	
0.965 -5.29035e-14 	0 	0 	
0.975 -1.76346e-14 	0 	0 	
0.985 -5.29035e-14 	0 	0 	
0.995 1.76345e-14 	0 	0 	
