0.005 0 	0 	0 	
0.015 1.76345e-14 	0 	0 	
0.025 5.87817e-14 	0 	0 	
0.035 7.34772e-14 	0 	0 	
0.045 4.11472e-14 	0 	0 	
0.055 2.93908e-15 	0 	0 	
0.065 -2.64518e-14 	0 	0 	
0.075 -6.46598e-14 	0 	0 	
0.085 -7.93551e-14 	0 	0 	
0.095 -1.46954e-14 	0 	0 	
0.105 6.17207e-14 	0 	0 	
0.115 7.0538e-14 	0 	0 	
0.125 4.11472e-14 	0 	0 	
0.135 -1.46954e-14 	0 	0 	
0.145 -7.93552e-14 	-1.14206e-30 	0 	
0.155 -1.08746e-13 	6.52609e-31 	0 	
0.165 -9.99288e-14 	0 	0 	
0.175 -7.34772e-14 	0 	0 	
0.185 -3.233e-14 	0 	0 	
0.195 2.93908e-14 	0 	0 	
0.205 6.46599e-14 	0 	0 	
0.215 4.40863e-14 	0 	0 	
0.225 2.93908e-14 	0 	0 	
0.235 3.82081e-14 	2.61042e-30 	0 	
0.245 2.35127e-14 	3.26303e-31 	0 	
0.255 2.50001e-20 	0 	0 	
0.265 -2.93908e-15 	0 	0 	
0.275 0 	0 	0 	
0.285 0 	0 	0 	
0.295 0 	0 	0 	
0.305 0 	0 	0 	
0.315 8.81725e-15 	0 	0 	
0.325 2.64517e-14 	0 	0 	
0.335 3.23299e-14 	0 	0 	
0.345 1.46954e-14 	0 	0 	
0.355 -1.76345e-14 	0 	0 	
0.365 -3.5269e-14 	0 	0 	
0.375 -3.233e-14 	0 	0 	
0.385 -3.23299e-14 	0 	0 	
0.395 -3.23299e-14 	0 	0 	
0.405 -8.81725e-15 	0 	0 	
0.415 2.93909e-14 	0 	0 	
0.425 3.52691e-14 	0 	0 	
0.435 1.17564e-14 	0 	0 	
0.445 -1.46954e-14 	0 	0 	
0.455 3.12657 	0 	0 	
0.465 18.6464 	0 	0 	
0.475 51.4081 	0 	0 	
0.485 90.4571 	0 	0 	
0.495 119.888 	0 	0 	
0.505 132.731 	0 	0 	
0.515 131.602 	0 	0 	
0.525 117.394 	0 	0 	
0.535 82.043 	0 	0 	
0.545 35.4946 	0 	0 	
0.555 6.65615 	0 	0 	
0.565 -6.61295e-15 	0 	0 	
0.575 -6.61295e-15 	0 	0 	
0.585 6.61295e-15 	0 	0 	
0.595 6.61295e-15 	0 	0 	
0.605 -1.54302e-14 	0 	0 	
0.615 -4.84949e-14 	0 	0 	
0.625 -5.51079e-14 	0 	0 	
0.635 -1.54302e-14 	0 	0 	
0.645 2.86561e-14 	0 	0 	
0.655 1.98388e-14 	0 	0 	
0.665 -3.96777e-14 	0 	0 	
0.675 -6.83338e-14 	0 	0 	
0.685 -2.20432e-14 	0 	0 	
0.695 4.84949e-14 	0 	0 	
0.705 7.7151e-14 	0 	0 	
0.715 5.73122e-14 	0 	0 	
0.725 2.64518e-14 	0 	0 	
0.735 6.61295e-15 	0 	0 	
0.745 0 	0 	0 	
0.755 0 	0 	0 	
0.765 0 	0 	0 	
0.775 -4.40862e-15 	0 	0 	
0.785 -2.20431e-14 	0 	0 	
0.795 -2.64518e-14 	0 	0 	
0.805 2.2043e-15 	0 	0 	
0.815 2.42475e-14 	-2.20255e-30 	0 	
0.825 1.98389e-14 	0 	0 	
0.835 6.61295e-15 	0 	0 	
0.845 0 	0 	0 	
0.855 -2.20431e-15 	0 	0 	
0.865 -1.10216e-14 	0 	0 	
0.875 -8.81727e-15 	0 	0 	
0.885 8.81726e-15 	0 	0 	
0.895 1.10216e-14 	0 	0 	
0.905 -4.40863e-15 	0 	0 	
0.915 -2.86561e-14 	0 	0 	
0.925 -3.5269e-14 	0 	0 	
0.935 4.40863e-15 	0 	0 	
0.945 3.74733e-14 	0 	0 	
0.955 2.42475e-14 	0 	0 	
0.965 4.40863e-15 	0 	0 	
0.975 0 	0 	0 	
0.985 0 	0 	0 	
0.995 0 	0 	0 	
