0.005 34342.4 	-1.94902e-31 	0 	
0.015 -926.861 	0 	0 	
0.025 -727.87 	0 	0 	
0.035 90975.3 	0 	0 	
0.045 199.513 	0 	0 	
0.055 -2909.03 	0 	0 	
0.065 492687 	0 	0 	
0.075 1396.06 	0 	0 	
0.085 810.08 	0 	0 	
0.095 8810.8 	0 	0 	
0.105 -2794.05 	0 	0 	
0.115 97.11 	0 	0 	
0.125 -32564.6 	0 	0 	
0.135 3018.66 	0 	0 	
0.145 -678.505 	0 	0 	
0.155 177522 	0 	0 	
0.165 -18989.6 	0 	0 	
0.175 -188418 	-2.40521e-30 	0 	
0.185 -3196.4 	0 	0 	
0.195 -9987.86 	0 	0 	
0.205 -1087.46 	0 	0 	
0.215 39691.5 	0 	0 	
0.225 395.908 	0 	0 	
0.235 -34341.5 	0 	0 	
0.245 -923.694 	0 	0 	
0.255 276.115 	0 	0 	
0.265 916.326 	0 	0 	
0.275 644.304 	0 	0 	
0.285 -1375.98 	0 	0 	
0.295 373332 	0 	0 	
0.305 56362.8 	0 	0 	
0.315 4131.72 	0 	0 	
0.325 -597662 	0 	0 	
0.335 84.25 	0 	0 	
0.345 -4137.7 	0 	0 	
0.355 -2.33285e+06 	0 	0 	
0.365 20364.2 	0 	0 	
0.375 72.06 	0 	0 	
0.385 -81.029 	0 	0 	
0.395 544772 	0 	0 	
0.405 7295.23 	0 	0 	
0.415 -1.98918e+06 	0 	0 	
0.425 -5.46877e+18 	0 	0 	
0.435 -1.65419e+30 	0 	0 	
0.445 -1.74687e+40 	0 	0 	
0.455 -3.44636e+43 	0 	0 	
0.465 -1.15971e+53 	0 	0 	
0.475 -2.14538e+65 	0 	0 	
0.485 -6.64384e+73 	0 	0 	
0.495 3.98405e+76 	0 	0 	
0.505 -7.56006e+81 	0 	0 	
0.515 3.66765e+83 	0 	0 	
0.525 1.79641e+73 	0 	0 	
0.535 2.06331e+65 	0 	0 	
0.545 7.77849e+54 	0 	0 	
0.555 1.48054e+42 	0 	0 	
0.565 3.77129e+31 	0 	0 	
0.575 3.04504e+20 	0 	0 	
0.585 3.055e+07 	0 	0 	
0.595 185.891 	0 	0 	
0.605 -1682.62 	0 	0 	
0.615 272.262 	0 	0 	
0.625 -391.617 	0 	0 	
0.635 -19267.5 	0 	0 	
0.645 9075.32 	0 	0 	
0.655 -253.622 	0 	0 	
0.665 12943.6 	0 	0 	
0.675 266.195 	0 	0 	
0.685 485.989 	0 	0 	
0.695 -59.0635 	0 	0 	
0.705 -658.898 	0 	0 	
0.715 5444.69 	0 	0 	
0.725 -7772.68 	0 	0 	
0.735 -407.033 	0 	0 	
0.745 3591.3 	0 	0 	
0.755 -465.52 	0 	0 	
0.765 3897.88 	0 	0 	
0.775 -12328.5 	0 	0 	
0.785 1094.98 	0 	0 	
0.795 114.615 	0 	0 	
0.805 -2741.14 	0 	0 	
0.815 59377.5 	0 	0 	
0.825 -10045.6 	0 	0 	
0.835 2206.25 	0 	0 	
0.845 -4796.64 	0 	0 	
0.855 12187.4 	0 	0 	
0.865 -5885.97 	0 	0 	
0.875 -503.434 	0 	0 	
0.885 -6.97468e+06 	0 	0 	
0.895 -747.977 	0 	0 	
0.905 -955.769 	0 	0 	
0.915 98721.5 	0 	0 	
0.925 -9384.87 	0 	0 	
0.935 -629875 	0 	0 	
0.945 -45507.7 	0 	0 	
0.955 -2387.79 	0 	0 	
0.965 446.69 	0 	0 	
0.975 452.486 	0 	0 	
0.985 -364.279 	0 	0 	
0.995 26341.9 	0 	0 	
