0.005 0.001 275.576
0.015 241.784 418174
0.025 350.699 5.18883e+06
0.035 4.20285 5.50413e+06
0.045 183.596 195523
0.055 548.059 5.41841e+06
0.065 0.001 2522.09
0.075 390.024 6.02615e+06
0.085 238.162 2.09849e+06
0.095 0.001 919.922
0.105 0.001 16.9108
0.115 84.1397 641923
0.125 0.001 14.1959
0.135 577.607 4.1771e+06
0.145 240.77 3.03794e+06
0.155 2019.55 7.81945e+06
0.165 2.45342 206560
0.175 0.00100003 1432.77
0.185 5.1567 1.12227e+06
0.195 321.111 3.76238e+06
0.205 55.333 729232
0.215 8494.84 8.76273e+06
0.225 344.691 5.03693e+06
0.235 0.001 219.526
0.245 83.3542 4.20435e+06
0.255 284.949 3.14397e+06
0.265 23.8898 726674
0.275 153.886 384306
0.285 61.4078 80689.2
0.295 0.00100002 1233.55
0.305 0.001 58.4696
0.315 31.6847 966837
0.325 0.001 2129.59
0.335 8762.37 8.76239e+06
0.345 0.001 4.91378
0.355 3762.38 3.76417e+06
0.365 0.001 2876.99
0.375 201.108 1.16643e+06
0.385 201.117 1.16136e+06
0.395 2159.51 8.76273e+06
0.405 1.51408 65196.9
0.415 0.00100006 2606.27
0.425 0.001 2876.99
0.435 0.001 2876.99
0.445 0.001 2876.99
0.455 3762.38 3.76417e+06
0.465 0.001 2876.99
0.475 0.001 2876.99
0.485 0.001 2876.99
0.495 10000 1e+07
0.505 3762.38 3.76417e+06
0.515 0.001 2876.99
0.525 0.00100023 2876.99
0.535 0.001 2876.99
0.545 0.001 2876.99
0.555 0.001 2876.99
0.565 0.001 2876.99
0.575 0.001 2876.99
0.585 0.001 2876.99
0.595 376.129 747266
0.605 136.173 5.83243e+06
0.615 370.378 282911
0.625 194.037 428427
0.635 646.586 8.67777e+06
0.645 0.00100023 1337.22
0.655 298.433 1.11057e+06
0.665 5474.85 8.76237e+06
0.675 77.8949 392336
0.685 368.693 2.74497e+06
0.695 230.652 1.074e+06
0.705 202.989 2.81079e+06
0.715 496.262 7.53879e+06
0.725 8762.37 8.76238e+06
0.735 113.143 285487
0.745 0.001 33.5551
0.755 775.979 3.82466e+06
0.765 44.2831 341363
0.775 0.001 2815.36
0.785 0.00100001 2.57909
0.795 29.7334 72550.1
0.805 448.508 8.48188e+06
0.815 35.6462 2.58782e+06
0.825 841.836 3.76417e+06
0.835 2689.56 8.7627e+06
0.845 0.001 228.375
0.855 0.001 1759.98
0.865 33.8321 206173
0.875 230.986 1.21989e+06
0.885 0.001 2876.99
0.895 1764.18 3.91956e+06
0.905 601.146 7.06771e+06
0.915 0.001 2876.99
0.925 12.6846 818675
0.935 419.089 14488.4
0.945 162.143 3.76417e+06
0.955 1488.51 8.76238e+06
0.965 293.282 438990
0.975 7.5813 2.33672e+06
0.985 110.479 34457.8
0.995 4.48106 3.76417e+06
