0.005 -6.81866e-14 	0 	0 	
0.015 5.11404e-14 	0 	0 	
0.025 1.7047e-14 	0 	0 	
0.035 -6.13684e-14 	0 	0 	
0.045 -8.86428e-14 	0 	0 	
0.055 -1.12509e-13 	0 	0 	
0.065 -4.77309e-14 	0 	0 	
0.075 -1.5342e-13 	0 	0 	
0.085 7.50053e-14 	0 	0 	
0.095 7.50052e-14 	0 	0 	
0.105 -1.12509e-13 	0 	0 	
0.115 -3.06841e-14 	0 	0 	
0.125 -5.11402e-14 	0 	0 	
0.135 -6.81885e-15 	0 	0 	
0.145 -9.54613e-14 	0 	0 	
0.155 4.43216e-14 	0 	0 	
0.165 -3.40928e-15 	0 	0 	
0.175 -8.52332e-14 	0 	0 	
0.185 1.0569e-13 	-5.91427e-30 	0 	
0.195 7.1596e-14 	0 	0 	
0.205 1.5683e-13 	0 	0 	
0.215 -9.88708e-14 	0 	0 	
0.225 1.0228e-13 	0 	0 	
0.235 -7.84149e-14 	0 	0 	
0.245 4.77305e-14 	0 	0 	
0.255 1.5342e-13 	-5.44111e-30 	0 	
0.265 -6.13682e-14 	-2.72056e-30 	0 	
0.275 3.40934e-14 	0 	0 	
0.285 1.36374e-14 	0 	0 	
0.295 8.86427e-14 	0 	0 	
0.305 9.54614e-14 	0 	0 	
0.315 -5.11401e-14 	0 	0 	
0.325 -3.40933e-14 	0 	0 	
0.335 1.0228e-14 	0 	0 	
0.345 1.39783e-13 	0 	0 	
0.355 1.0569e-13 	-2.48399e-30 	0 	
0.365 8.58813e-11 	0 	0 	
0.375 4.72407e-07 	0 	0 	
0.385 0.000138657 	0 	0 	
0.395 0.00895621 	0 	0 	
0.405 0.200806 	0 	0 	
0.415 1.8729 	0 	0 	
0.425 8.55127 	0 	0 	
0.435 23.4919 	0 	0 	
0.445 46.4674 	0 	0 	
0.455 74.6424 	0 	0 	
0.465 103.4 	0 	0 	
0.475 124.155 	0 	0 	
0.485 130.005 	0 	0 	
0.495 130.197 	7.14513e-31 	0 	
0.505 130.163 	0 	0 	
0.515 130.136 	0 	0 	
0.525 130.114 	0 	0 	
0.535 130.093 	0 	0 	
0.545 130.069 	0 	0 	
0.555 129.996 	0 	0 	
0.565 128.341 	0 	0 	
0.575 111.955 	0 	0 	
0.585 66.1247 	0 	0 	
0.595 7.6502 	0 	0 	
0.605 0.174234 	0 	0 	
0.615 0.00163272 	0 	0 	
0.625 3.83441e-06 	0 	0 	
0.635 5.00029e-10 	0 	0 	
0.645 2.55701e-15 	0 	0 	
0.655 1.35521e-13 	0 	0 	
0.665 -1.5342e-14 	0 	0 	
0.675 -2.557e-14 	0 	0 	
0.685 8.1824e-14 	0 	0 	
0.695 -6.1368e-14 	0 	0 	
0.705 -2.557e-14 	0 	0 	
0.715 -2.55696e-15 	0 	0 	
0.725 -6.3925e-14 	0 	0 	
0.735 1.04837e-13 	0 	0 	
0.745 3.57979e-14 	0 	0 	
0.755 1.12508e-13 	0 	0 	
0.765 -5.11419e-15 	0 	0 	
0.775 2.557e-14 	0 	0 	
0.785 4.09123e-14 	0 	0 	
0.795 -1.12508e-13 	0 	0 	
0.805 1.2785e-14 	0 	0 	
0.815 1.5342e-14 	0 	0 	
0.825 -2.557e-14 	0 	0 	
0.835 -5.114e-14 	0 	0 	
0.845 -2.8127e-14 	0 	0 	
0.855 1.63648e-13 	0 	0 	
0.865 -1.7899e-14 	0 	0 	
0.875 1.27848e-14 	0 	0 	
0.885 -5.88115e-14 	0 	0 	
0.895 -1.43193e-13 	0 	0 	
0.905 9.97235e-14 	0 	0 	
0.915 4.6026e-14 	0 	0 	
0.925 2.557e-14 	0 	0 	
0.935 -2.30134e-14 	0 	0 	
0.945 1.15065e-13 	0 	0 	
0.955 7.4153e-14 	0 	0 	
0.965 5.114e-14 	0 	0 	
0.975 -3.8355e-14 	0 	0 	
0.985 -7.92672e-14 	0 	0 	
0.995 2.557e-15 	0 	0 	
