0.005 -2.46883e-13 	0 	0 	
0.015 1.05807e-13 	0 	0 	
0.025 1.76345e-13 	0 	0 	
0.035 2.52436e-29 	0 	0 	
0.045 -1.05807e-13 	0 	0 	
0.055 2.46883e-13 	0 	0 	
0.065 -3.5269e-14 	0 	0 	
0.075 3.5269e-14 	0 	0 	
0.085 -7.0538e-14 	0 	0 	
0.095 -1.05807e-13 	0 	0 	
0.105 3.5269e-14 	0 	0 	
0.115 1.41076e-13 	0 	0 	
0.125 1.05807e-13 	-5.01693e-30 	0 	
0.135 -1.05807e-13 	0 	0 	
0.145 -3.17421e-13 	0 	0 	
0.155 -1.41076e-13 	0 	0 	
0.165 1.05807e-13 	0 	0 	
0.175 7.0538e-14 	-1.0768e-29 	0 	
0.185 3.52689e-14 	-9.54439e-30 	0 	
0.195 -2.11614e-13 	0 	0 	
0.205 1.05807e-13 	0 	0 	
0.215 -3.5269e-14 	0 	0 	
0.225 -3.5269e-14 	0 	0 	
0.235 -3.94344e-24 	0 	0 	
0.245 -3.52691e-13 	0 	0 	
0.255 2.62893e-24 	-1.12575e-29 	0 	
0.265 -7.05381e-14 	-1.05233e-29 	0 	
0.275 -3.52689e-14 	0 	0 	
0.285 5.375e-11 	0 	0 	
0.295 1.55012e-08 	0 	0 	
0.305 1.66937e-06 	0 	0 	
0.315 8.25976e-05 	0 	0 	
0.325 0.00211794 	0 	0 	
0.335 0.0303916 	0 	0 	
0.345 0.2575 	0 	0 	
0.355 1.35158 	-9.57872e-30 	0 	
0.365 4.6752 	0 	0 	
0.375 11.5766 	0 	0 	
0.385 22.4206 	0 	0 	
0.395 36.6035 	0 	0 	
0.405 53.1593 	-3.1555e-30 	0 	
0.415 71.1253 	6.06903e-31 	0 	
0.425 89.5098 	3.21729e-31 	0 	
0.435 106.911 	8.31476e-46 	0 	
0.445 -5.38233e+06 	-1.33063e-31 	0 	
0.455 -2.5093e+17 	1.90613e-25 	0 	
0.465 -1.05613e+32 	-8.03131e-42 	0 	
0.475 -1.35559e+49 	0 	0 	
0.485 -7.46237e+53 	-7.24634e-67 	0 	
0.495 -7.95854e+61 	1.32429e-74 	0 	
0.505 -1.30325e+66 	8.94882e-72 	0 	
0.515 -7.8953e+66 	0 	0 	
0.525 -5.8209e+73 	0 	0 	
0.535 9.88067e+77 	0 	0 	
0.545 8.2281e+73 	0 	0 	
0.555 -1.68296e+76 	0 	0 	
0.565 -2.86928e+90 	0 	0 	
0.575 1.3388e+89 	0 	0 	
0.585 2.50078e+78 	0 	0 	
0.595 2.46938e+77 	0 	0 	
0.605 6.05765e+76 	0 	0 	
0.615 1.85719e+68 	0 	0 	
0.625 1.06741e+60 	0 	0 	
0.635 2.22885e+50 	0 	0 	
0.645 4.77438e+45 	0 	0 	
0.655 4.09283e+37 	0 	0 	
0.665 1.20983e+24 	0 	0 	
0.675 2.51386e+25 	0 	0 	
0.685 2.84712e+26 	0 	0 	
0.695 3.54182e+24 	0 	0 	
0.705 2.00353e-07 	0 	0 	
0.715 5.30755e-10 	0 	0 	
0.725 3.70325e-13 	0 	0 	
0.735 -1.05807e-13 	0 	0 	
0.745 5.29035e-14 	0 	0 	
0.755 -2.6452e-14 	0 	0 	
0.765 9.79703e-25 	0 	0 	
0.775 -1.32259e-13 	0 	0 	
0.785 -2.6452e-14 	0 	0 	
0.795 -2.64517e-14 	0 	0 	
0.805 1.58711e-13 	0 	0 	
0.815 1.5871e-13 	0 	0 	
0.825 -2.6452e-14 	0 	0 	
0.835 2.6452e-14 	0 	0 	
0.845 1.05807e-13 	0 	0 	
0.855 1.85162e-13 	0 	0 	
0.865 2.6452e-14 	0 	0 	
0.875 1.05807e-13 	0 	0 	
0.885 -1.05807e-13 	0 	0 	
0.895 -5.29037e-14 	0 	0 	
0.905 5.29036e-14 	0 	0 	
0.915 7.93555e-14 	0 	0 	
0.925 -5.29035e-14 	0 	0 	
0.935 -5.29035e-14 	0 	0 	
0.945 7.93555e-14 	0 	0 	
0.955 -2.92859e-24 	0 	0 	
0.965 -1.32259e-13 	0 	0 	
0.975 -1.58711e-13 	0 	0 	
0.985 -2.64517e-14 	0 	0 	
0.995 -1.05807e-13 	0 	0 	
