0.005 2.01736e-14 	0 	0 	
0.015 5.11072e-14 	0 	0 	
0.025 3.69855e-14 	0 	0 	
0.035 1.34492e-15 	0 	0 	
0.045 6.72465e-14 	0 	0 	
0.055 5.37968e-15 	0 	0 	
0.065 -3.02609e-14 	0 	0 	
0.075 3.69857e-14 	0 	0 	
0.085 -1.88291e-14 	0 	0 	
0.095 -7.80059e-14 	0 	0 	
0.105 2.35362e-14 	0 	0 	
0.115 -2.01739e-13 	1.02655e-29 	0 	
0.125 -1.17681e-13 	0 	0 	
0.135 -7.12811e-14 	0 	0 	
0.145 -1.30458e-13 	0 	0 	
0.155 -7.86782e-14 	0 	0 	
0.165 -3.36232e-14 	0 	0 	
0.175 1.17529e-24 	0 	0 	
0.185 -1.16336e-13 	0 	0 	
0.195 7.39709e-15 	0 	0 	
0.205 -1.33147e-13 	0 	0 	
0.215 1.17529e-24 	0 	0 	
0.225 -2.08463e-13 	0 	0 	
0.235 -6.72465e-14 	0 	0 	
0.245 4.70727e-15 	0 	0 	
0.255 -9.41449e-15 	0 	0 	
0.265 1.41217e-14 	0 	0 	
0.275 9.41451e-14 	0 	0 	
0.285 1.09544e-12 	0 	0 	
0.295 6.3678e-10 	0 	0 	
0.305 1.09863e-07 	0 	0 	
0.315 7.84308e-06 	0 	0 	
0.325 0.000284523 	0 	0 	
0.335 0.00585453 	0 	0 	
0.345 0.0684719 	0 	0 	
0.355 0.483165 	0 	0 	
0.365 2.19574 	0 	0 	
0.375 6.7517 	0 	0 	
0.385 15.3105 	0 	0 	
0.395 27.9077 	0 	0 	
0.405 43.7372 	0 	0 	
0.415 61.7149 	0 	0 	
0.425 80.7665 	0 	0 	
0.435 99.5702 	0 	0 	
0.445 115.908 	0 	0 	
0.455 126.406 	0 	0 	
0.465 129.861 	0 	0 	
0.475 130.194 	0 	0 	
0.485 130.175 	0 	0 	
0.495 130.155 	0 	0 	
0.505 130.139 	0 	0 	
0.515 130.126 	0 	0 	
0.525 130.116 	0 	0 	
0.535 130.106 	0 	0 	
0.545 130.097 	0 	0 	
0.555 130.089 	0 	0 	
0.565 130.08 	0 	0 	
0.575 130.069 	0 	0 	
0.585 130.057 	0 	0 	
0.595 130.04 	0 	0 	
0.605 129.975 	0 	0 	
0.615 129.771 	0 	0 	
0.625 132.342 	0 	0 	
0.635 120.464 	0 	0 	
0.645 69.7697 	0 	0 	
0.655 7.39436 	0 	0 	
0.665 0.295745 	0 	0 	
0.675 0.00779867 	0 	0 	
0.685 0.000139407 	0 	0 	
0.695 1.40755e-06 	0 	0 	
0.705 6.26934e-09 	0 	0 	
0.715 9.22702e-12 	0 	0 	
0.725 -1.76521e-14 	0 	0 	
0.735 -6.25389e-14 	0 	0 	
0.745 3.5304e-15 	0 	0 	
0.755 -1.26591e-13 	0 	0 	
0.765 -1.04904e-13 	0 	0 	
0.775 5.0433e-15 	0 	0 	
0.785 -5.04347e-14 	0 	0 	
0.795 -5.69912e-14 	0 	0 	
0.805 -7.56552e-15 	0 	0 	
0.815 1.36174e-14 	0 	0 	
0.825 9.07825e-14 	0 	0 	
0.835 1.41217e-14 	0 	0 	
0.845 1.76519e-14 	0 	0 	
0.855 3.27827e-14 	0 	0 	
0.865 7.0104e-14 	0 	0 	
0.875 6.30433e-14 	0 	0 	
0.885 9.53217e-14 	0 	0 	
0.895 4.53911e-15 	0 	0 	
0.905 5.85044e-14 	0 	0 	
0.915 -1.51296e-15 	0 	0 	
0.925 -8.32168e-14 	0 	0 	
0.935 -2.52175e-14 	0 	0 	
0.945 -4.28694e-14 	0 	0 	
0.955 5.69915e-14 	0 	0 	
0.965 -3.53042e-15 	0 	0 	
0.975 -3.02608e-14 	0 	0 	
0.985 -2.26955e-14 	0 	0 	
0.995 3.27828e-14 	0 	0 	
