0.005 -4.22494e-14 	0 	0 	
0.015 1.68998e-14 	0 	0 	
0.025 8.02738e-14 	0 	0 	
0.035 -5.06993e-14 	0 	0 	
0.045 -3.80244e-14 	0 	0 	
0.055 1.68998e-14 	0 	0 	
0.065 -3.80244e-14 	-3.51796e-30 	0 	
0.075 6.33741e-14 	0 	0 	
0.085 -1.22523e-13 	0 	0 	
0.095 -5.91491e-14 	0 	0 	
0.105 8.02738e-14 	0 	0 	
0.115 -1.68998e-14 	0 	0 	
0.125 -1.26748e-14 	0 	0 	
0.135 8.02738e-14 	0 	0 	
0.145 6.33741e-14 	0 	0 	
0.155 4.22494e-14 	0 	0 	
0.165 -2.11247e-14 	0 	0 	
0.175 1.26748e-14 	0 	0 	
0.185 2.11247e-14 	0 	0 	
0.195 9.29486e-14 	0 	0 	
0.205 6.7599e-14 	0 	0 	
0.215 8.02738e-14 	0 	0 	
0.225 -2.95746e-14 	0 	0 	
0.235 -1.68997e-14 	0 	0 	
0.245 6.33741e-14 	0 	0 	
0.255 5.91491e-14 	0 	0 	
0.265 -2.95746e-14 	0 	0 	
0.275 -1.26748e-13 	0 	0 	
0.285 2.11247e-14 	0 	0 	
0.295 -1.30973e-13 	0 	0 	
0.305 6.33741e-14 	0 	0 	
0.315 -2.19697e-13 	0 	0 	
0.325 1.39423e-13 	0 	0 	
0.335 -8.44987e-14 	0 	0 	
0.345 -4.22494e-15 	0 	0 	
0.355 -3.37995e-14 	0 	0 	
0.365 1.77447e-13 	0 	0 	
0.375 7.18239e-14 	0 	0 	
0.385 4.64743e-14 	0 	0 	
0.395 1.5925e-10 	0 	0 	
0.405 9.01145e-06 	0 	0 	
0.415 0.00312513 	0 	0 	
0.425 0.152511 	0 	0 	
0.435 2.07517 	0 	0 	
0.445 11.2632 	2.41926e-31 	0 	
0.455 32.7289 	0 	0 	
0.465 64.9777 	0 	0 	
0.475 101.087 	0 	0 	
0.485 125.932 	8.70786e-31 	0 	
0.495 130.194 	0 	0 	
0.505 130.18 	0 	0 	
0.515 130.141 	0 	0 	
0.525 130.108 	0 	0 	
0.535 130.044 	0 	0 	
0.545 129.308 	0 	0 	
0.555 118.596 	-2.51327e-30 	0 	
0.565 68.2893 	0 	0 	
0.575 6.15646 	0 	0 	
0.585 0.0868743 	0 	0 	
0.595 0.000235625 	0 	0 	
0.605 1.67294e-08 	0 	0 	
0.615 -2.53494e-14 	0 	0 	
0.625 5.70366e-14 	0 	0 	
0.635 1.58435e-14 	0 	0 	
0.645 -4.11934e-14 	0 	0 	
0.655 -6.97114e-14 	0 	0 	
0.665 3.48554e-14 	0 	0 	
0.675 -2.21813e-14 	0 	0 	
0.685 1.20411e-13 	0 	0 	
0.695 -6.02053e-14 	0 	0 	
0.705 -8.87236e-14 	0 	0 	
0.715 6.02055e-14 	0 	0 	
0.725 4.43616e-14 	2.81437e-30 	0 	
0.735 -1.26748e-13 	0 	0 	
0.745 -3.48556e-14 	0 	0 	
0.755 4.43618e-14 	0 	0 	
0.765 -1.90123e-14 	-8.44311e-30 	0 	
0.775 4.11932e-14 	0 	0 	
0.785 -2.53494e-14 	0 	0 	
0.795 -6.33776e-15 	0 	0 	
0.805 -9.5065e-15 	0 	0 	
0.815 -1.2041e-13 	3.86977e-30 	0 	
0.825 9.5061e-15 	2.11078e-30 	0 	
0.835 -5.70364e-14 	0 	0 	
0.845 -3.48561e-14 	0 	0 	
0.855 -6.02051e-14 	0 	0 	
0.865 -1.26747e-14 	0 	0 	
0.875 -4.11933e-14 	0 	0 	
0.885 -2.21807e-14 	0 	0 	
0.895 3.16884e-15 	0 	0 	
0.905 -2.21809e-14 	0 	0 	
0.915 -9.5061e-15 	0 	0 	
0.925 1.01398e-13 	0 	0 	
0.935 2.85185e-14 	0 	0 	
0.945 4.75305e-14 	0 	0 	
0.955 -6.33737e-15 	0 	0 	
0.965 -2.21809e-14 	0 	0 	
0.975 -1.58435e-14 	0 	0 	
0.985 2.85185e-14 	0 	0 	
0.995 -9.50612e-15 	0 	0 	
