0.005 7.05381e-14 	0 	0 	
0.015 4.70254e-14 	0 	0 	
0.025 5.84921e-25 	0 	0 	
0.035 -4.70254e-14 	0 	0 	
0.045 -2.3513e-14 	0 	0 	
0.055 -7.05381e-14 	0 	0 	
0.065 -4.70253e-14 	0 	0 	
0.075 -2.3513e-14 	0 	0 	
0.085 4.70254e-14 	0 	0 	
0.095 4.70253e-14 	0 	0 	
0.105 7.05381e-14 	0 	0 	
0.115 4.70255e-14 	0 	0 	
0.125 -2.35126e-14 	0 	0 	
0.135 1.41076e-13 	0 	0 	
0.145 7.0538e-14 	0 	0 	
0.155 -7.0538e-14 	0 	0 	
0.165 -2.3513e-14 	0 	0 	
0.175 4.70254e-14 	0 	0 	
0.185 2.35127e-14 	0 	0 	
0.195 -7.0538e-14 	0 	0 	
0.205 4.70253e-14 	3.26303e-30 	0 	
0.215 2.35127e-14 	0 	0 	
0.225 0 	0 	0 	
0.235 -2.35127e-14 	0 	0 	
0.245 -4.70254e-14 	0 	0 	
0.255 1.17563e-13 	0 	0 	
0.265 -4.70256e-14 	0 	0 	
0.275 -4.70256e-14 	0 	0 	
0.285 2.35127e-14 	0 	0 	
0.295 -9.40507e-14 	0 	0 	
0.305 2.35127e-14 	0 	0 	
0.315 -7.05381e-14 	0 	0 	
0.325 2.35127e-14 	0 	0 	
0.335 -1.17563e-13 	0 	0 	
0.345 7.05381e-14 	0 	0 	
0.355 4.70255e-14 	0 	0 	
0.365 4.70254e-14 	0 	0 	
0.375 7.05381e-14 	0 	0 	
0.385 2.35127e-14 	0 	0 	
0.395 2.35127e-14 	0 	0 	
0.405 9.29362e-10 	0 	0 	
0.415 2.41087e-06 	0 	0 	
0.425 0.000569086 	0 	0 	
0.435 0.0330146 	0 	0 	
0.445 0.660917 	0 	0 	
0.455 5.465 	0 	0 	
0.465 22.4504 	0 	0 	
0.475 56.4862 	0 	0 	
0.485 100.747 	0 	0 	
0.495 128.203 	0 	0 	
0.505 130.209 	-7.50344e-31 	0 	
0.515 130.067 	7.42304e-31 	0 	
0.525 128.238 	-1.0115e-30 	0 	
0.535 112.161 	-8.79968e-31 	0 	
0.545 55.4542 	-1.01549e-30 	0 	
0.555 6.91324 	0 	0 	
0.565 0.24997 	0 	0 	
0.575 0.00330474 	0 	0 	
0.585 1.14104e-05 	0 	0 	
0.595 3.65315e-09 	0 	0 	
0.605 7.05379e-14 	0 	0 	
0.615 -1.76345e-14 	0 	0 	
0.625 -1.74481e-24 	0 	0 	
0.635 7.0538e-14 	0 	0 	
0.645 1.76345e-14 	0 	0 	
0.655 1.23442e-13 	0 	0 	
0.665 1.30858e-24 	0 	0 	
0.675 7.0538e-14 	0 	0 	
0.685 8.81725e-14 	0 	0 	
0.695 -8.70828e-25 	0 	0 	
0.705 -3.91879e-24 	0 	0 	
0.715 1.76345e-14 	0 	0 	
0.725 3.52689e-14 	0 	0 	
0.735 -5.29036e-14 	0 	0 	
0.745 -8.70839e-25 	0 	0 	
0.755 -1.76345e-14 	-1.22364e-30 	0 	
0.765 3.5269e-14 	0 	0 	
0.775 7.05379e-14 	0 	0 	
0.785 -3.11649e-40 	0 	0 	
0.795 3.5269e-14 	-1.22364e-30 	0 	
0.805 1.23442e-13 	-1.22364e-30 	0 	
0.815 5.29035e-14 	0 	0 	
0.825 -5.29036e-14 	0 	0 	
0.835 -1.76345e-14 	0 	0 	
0.845 1.76346e-14 	0 	0 	
0.855 2.17323e-24 	0 	0 	
0.865 3.5269e-14 	0 	0 	
0.875 7.0538e-14 	0 	0 	
0.885 8.69293e-25 	0 	0 	
0.895 4.34647e-25 	0 	0 	
0.905 7.0538e-14 	0 	0 	
0.915 5.29035e-14 	0 	0 	
0.925 3.5269e-14 	0 	0 	
0.935 3.5269e-14 	0 	0 	
0.945 -8.81725e-14 	0 	0 	
0.955 3.5269e-14 	0 	0 	
0.965 1.76345e-14 	0 	0 	
0.975 -1.76345e-14 	0 	0 	
0.985 5.29035e-14 	0 	0 	
0.995 1.76345e-14 	0 	0 	
