0.005 -1.46955e-14 	0 	0 	
0.015 7.3477e-14 	0 	0 	
0.025 -2.9391e-14 	0 	0 	
0.035 -1.17563e-13 	0 	0 	
0.045 -8.81724e-14 	0 	0 	
0.055 -2.93908e-14 	0 	0 	
0.065 5.87817e-14 	0 	0 	
0.075 5.87815e-14 	0 	0 	
0.085 5.87815e-14 	0 	0 	
0.095 4.40862e-14 	0 	0 	
0.105 1.32259e-13 	0 	0 	
0.115 8.81725e-14 	0 	0 	
0.125 1.46954e-13 	0 	0 	
0.135 1.46954e-13 	0 	0 	
0.145 1.91041e-13 	0 	0 	
0.155 1.9104e-13 	0 	0 	
0.165 1.91041e-13 	0 	0 	
0.175 2.05736e-13 	0 	0 	
0.185 2.05736e-13 	0 	0 	
0.195 5.4819e-24 	0 	0 	
0.205 -1.46955e-14 	0 	0 	
0.215 -1.02868e-13 	0 	0 	
0.225 -8.81728e-14 	0 	0 	
0.235 -1.02868e-13 	0 	0 	
0.245 -1.02868e-13 	0 	0 	
0.255 4.29106e-12 	0 	0 	
0.265 4.92973e-10 	0 	0 	
0.275 3.26602e-08 	0 	0 	
0.285 1.33567e-06 	0 	0 	
0.295 3.51762e-05 	0 	0 	
0.305 0.000615167 	0 	0 	
0.315 0.00730673 	0 	0 	
0.325 0.0599443 	0 	0 	
0.335 0.344624 	0 	0 	
0.345 1.41432 	0 	0 	
0.355 4.27423 	0 	0 	
0.365 9.96965 	0 	0 	
0.375 18.972 	0 	0 	
0.385 31.0357 	0 	0 	
0.395 45.5057 	0 	0 	
0.405 61.6235 	0 	0 	
0.415 78.6154 	0 	0 	
0.425 95.5601 	0 	0 	
0.435 111.037 	0 	0 	
0.445 122.761 	0 	0 	
0.455 128.681 	0 	0 	
0.465 130.102 	0 	0 	
0.475 130.196 	0 	0 	
0.485 130.174 	0 	0 	
0.495 130.156 	0 	0 	
0.505 130.141 	0 	0 	
0.515 130.13 	0 	0 	
0.525 130.12 	0 	0 	
0.535 130.111 	0 	0 	
0.545 130.103 	0 	0 	
0.555 130.095 	0 	0 	
0.565 130.088 	0 	0 	
0.575 130.08 	0 	0 	
0.585 130.073 	0 	0 	
0.595 130.064 	0 	0 	
0.605 130.053 	0 	0 	
0.615 130.026 	0 	0 	
0.625 129.866 	0 	0 	
0.635 128.851 	0 	0 	
0.645 123.367 	0 	0 	
0.655 99.9514 	0 	0 	
0.665 42.4267 	0 	0 	
0.675 5.35109 	0 	0 	
0.685 0.352563 	0 	0 	
0.695 0.0179339 	0 	0 	
0.705 0.000699564 	0 	0 	
0.715 1.97907e-05 	0 	0 	
0.725 3.83556e-07 	0 	0 	
0.735 4.79458e-09 	0 	0 	
0.745 3.5776e-11 	0 	0 	
0.755 7.71508e-14 	0 	0 	
0.765 -1.54302e-13 	0 	0 	
0.775 -1.21237e-13 	0 	0 	
0.785 -1.32259e-13 	0 	0 	
0.795 -1.21237e-13 	0 	0 	
0.805 -1.21237e-13 	0 	0 	
0.815 -9.91942e-14 	0 	0 	
0.825 -6.61295e-14 	0 	0 	
0.835 -4.40863e-14 	0 	0 	
0.845 -3.30647e-14 	0 	0 	
0.855 1.10216e-13 	0 	0 	
0.865 5.51078e-14 	0 	0 	
0.875 2.20431e-14 	0 	0 	
0.885 2.2043e-14 	0 	0 	
0.895 6.61295e-14 	0 	0 	
0.905 5.51078e-14 	0 	0 	
0.915 1.10216e-13 	0 	0 	
0.925 1.10215e-14 	0 	0 	
0.935 1.65324e-13 	0 	0 	
0.945 1.10216e-14 	0 	0 	
0.955 1.4328e-13 	0 	0 	
0.965 -2.20432e-14 	0 	0 	
0.975 3.30648e-14 	0 	0 	
0.985 4.40863e-14 	0 	0 	
0.995 -3.30647e-14 	0 	0 	
