0.005 5.31245e-14 	0 	0 	
0.015 -6.7246e-14 	0 	0 	
0.025 3.36225e-15 	0 	0 	
0.035 -6.72463e-16 	0 	0 	
0.045 -8.74202e-15 	0 	0 	
0.055 -9.81799e-14 	0 	0 	
0.065 2.68996e-15 	0 	0 	
0.075 3.02607e-14 	0 	0 	
0.085 -3.83305e-14 	0 	0 	
0.095 -5.5142e-14 	0 	0 	
0.105 -6.11943e-14 	0 	0 	
0.115 -4.909e-14 	9.33229e-31 	0 	
0.125 -1.68116e-14 	0 	0 	
0.135 5.98494e-14 	0 	0 	
0.145 -1.41217e-14 	0 	0 	
0.155 2.15191e-14 	0 	0 	
0.165 -2.08463e-14 	0 	0 	
0.175 2.35362e-14 	0 	0 	
0.185 -6.11941e-14 	0 	0 	
0.195 -3.09334e-14 	0 	0 	
0.205 2.48811e-14 	0 	0 	
0.215 1.66771e-13 	0 	0 	
0.225 -6.05216e-14 	0 	0 	
0.235 -1.02887e-13 	0 	0 	
0.245 7.73335e-14 	0 	0 	
0.255 -5.31248e-14 	0 	0 	
0.265 2.28634e-14 	0 	0 	
0.275 -7.06088e-14 	0 	0 	
0.285 -2.89163e-14 	0 	0 	
0.295 -8.74207e-15 	0 	0 	
0.305 -3.90029e-14 	0 	0 	
0.315 -1.04232e-13 	0 	0 	
0.325 -7.7333e-14 	0 	0 	
0.335 -6.59012e-14 	0 	0 	
0.345 -3.3623e-14 	0 	0 	
0.355 -9.68342e-14 	0 	0 	
0.365 4.10202e-14 	0 	0 	
0.375 1.68116e-14 	0 	0 	
0.385 8.27134e-14 	0 	0 	
0.395 3.36232e-14 	0 	0 	
0.405 1.23733e-13 	0 	0 	
0.415 8.00227e-14 	0 	0 	
0.425 2.01739e-14 	0 	0 	
0.435 -7.32986e-14 	0 	0 	
0.445 -3.63128e-14 	0 	0 	
0.455 7.39697e-15 	0 	0 	
0.465 -1.99049e-13 	0 	0 	
0.475 1.04232e-13 	0 	0 	
0.485 0.587515 	0 	0 	
0.495 52.6227 	0 	0 	
0.505 110.357 	0 	0 	
0.515 2.52393 	0 	0 	
0.525 -5.04335e-15 	0 	0 	
0.535 2.72349e-14 	0 	0 	
0.545 5.0435e-14 	0 	0 	
0.555 -7.36349e-14 	0 	0 	
0.565 1.0793e-13 	0 	0 	
0.575 -4.03475e-14 	0 	0 	
0.585 -3.73215e-14 	0 	0 	
0.595 9.22954e-14 	0 	0 	
0.605 -9.48172e-14 	0 	0 	
0.615 1.96693e-14 	0 	0 	
0.625 2.52173e-14 	0 	0 	
0.635 3.93389e-14 	0 	0 	
0.645 8.72521e-14 	0 	0 	
0.655 8.06962e-15 	0 	0 	
0.665 2.52175e-14 	0 	0 	
0.675 -2.52175e-14 	0 	0 	
0.685 7.81734e-14 	0 	0 	
0.695 3.48e-14 	0 	0 	
0.705 -1.21045e-14 	0 	0 	
0.715 -2.06784e-14 	0 	0 	
0.725 6.30434e-14 	0 	0 	
0.735 -6.10259e-14 	0 	0 	
0.745 5.39651e-14 	0 	0 	
0.755 3.5304e-15 	0 	0 	
0.765 4.7913e-14 	0 	0 	
0.775 -1.05913e-13 	0 	0 	
0.785 9.93565e-14 	0 	0 	
0.795 1.3113e-14 	0 	0 	
0.805 -1.15999e-14 	0 	0 	
0.815 5.7496e-14 	0 	0 	
0.825 -3.53044e-14 	0 	0 	
0.835 -2.52175e-14 	0 	0 	
0.845 -6.70786e-14 	0 	0 	
0.855 -3.12696e-14 	0 	0 	
0.865 -5.34607e-14 	0 	0 	
0.875 -3.09976e-24 	0 	0 	
0.885 -5.0435e-14 	0 	0 	
0.895 -1.51304e-15 	0 	0 	
0.905 1.02886e-13 	0 	0 	
0.915 6.05224e-15 	0 	0 	
0.925 -4.5391e-14 	0 	0 	
0.935 3.68172e-14 	0 	0 	
0.945 1.16e-14 	0 	0 	
0.955 3.17737e-14 	0 	0 	
0.965 -4.99307e-14 	0 	0 	
0.975 -1.00868e-14 	0 	0 	
0.985 -2.7739e-14 	0 	0 	
0.995 -1.01374e-13 	0 	0 	
