0.005 -2.42475e-14 	0 	0 	
0.015 2.42475e-14 	0 	0 	
0.025 -2.42475e-14 	0 	0 	
0.035 -8.0825e-15 	0 	0 	
0.045 8.08287e-15 	0 	0 	
0.055 -1.85897e-13 	0 	0 	
0.065 1.6165e-14 	0 	0 	
0.075 8.08249e-15 	0 	0 	
0.085 -7.27425e-14 	0 	0 	
0.095 7.27425e-14 	0 	0 	
0.105 2.42475e-14 	0 	0 	
0.115 -2.42476e-14 	0 	0 	
0.125 3.23301e-14 	0 	0 	
0.135 6.46599e-14 	0 	0 	
0.145 -1.17522e-24 	0 	0 	
0.155 -3.23299e-14 	0 	0 	
0.165 2.42475e-14 	0 	0 	
0.175 3.233e-14 	0 	0 	
0.185 -8.08262e-15 	0 	0 	
0.195 -7.27425e-14 	0 	0 	
0.205 -1.6165e-14 	0 	0 	
0.215 5.65774e-14 	0 	0 	
0.225 4.84946e-14 	0 	0 	
0.235 -4.04126e-14 	0 	0 	
0.245 -9.699e-14 	0 	0 	
0.255 4.04124e-14 	0 	0 	
0.265 -1.13155e-13 	0 	0 	
0.275 6.466e-14 	0 	0 	
0.285 6.46599e-14 	0 	0 	
0.295 -7.27425e-14 	0 	0 	
0.305 1.6165e-14 	0 	0 	
0.315 5.65775e-14 	2.91633e-30 	0 	
0.325 -4.04125e-14 	0 	0 	
0.335 -4.04125e-14 	-2.91633e-30 	0 	
0.345 8.0825e-15 	0 	0 	
0.355 5.6577e-14 	-1.45817e-30 	0 	
0.365 1.05072e-13 	5.83267e-30 	0 	
0.375 -1.61651e-14 	0 	0 	
0.385 -6.46601e-14 	0 	0 	
0.395 9.699e-14 	0 	0 	
0.405 2.373e-09 	0 	0 	
0.415 5.13886e-05 	0 	0 	
0.425 0.011259 	0 	0 	
0.435 0.418399 	0 	0 	
0.445 4.44076 	0 	0 	
0.455 19.5507 	0 	0 	
0.465 49.2906 	-2.33764e-30 	0 	
0.475 88.5239 	0 	0 	
0.485 121.776 	0 	0 	
0.495 130.14 	-4.23928e-31 	0 	
0.505 130.184 	-4.25372e-31 	0 	
0.515 130.139 	0 	0 	
0.525 130.082 	0 	0 	
0.535 129.489 	0 	0 	
0.545 121.634 	0 	0 	
0.555 74.5566 	0 	0 	
0.565 8.06776 	0 	0 	
0.575 0.123227 	0 	0 	
0.585 0.000363892 	0 	0 	
0.595 1.05293e-08 	0 	0 	
0.605 -4.8495e-14 	0 	0 	
0.615 5.45568e-14 	0 	0 	
0.625 1.09113e-13 	0 	0 	
0.635 -1.21237e-14 	0 	0 	
0.645 -7.88043e-14 	0 	0 	
0.655 3.63711e-14 	0 	0 	
0.665 1.81856e-14 	0 	0 	
0.675 -5.4557e-14 	0 	0 	
0.685 -4.2433e-14 	0 	0 	
0.695 -4.84949e-14 	0 	0 	
0.705 -1.81856e-14 	0 	0 	
0.715 4.8495e-14 	0 	0 	
0.725 1.21237e-13 	0 	0 	
0.735 -6.06189e-14 	0 	0 	
0.745 4.24327e-14 	0 	0 	
0.755 -6.0619e-15 	0 	0 	
0.765 1.33361e-13 	0 	0 	
0.775 -5.4557e-14 	0 	0 	
0.785 8.81442e-25 	0 	0 	
0.795 -4.24331e-14 	0 	0 	
0.805 7.27426e-14 	0 	0 	
0.815 -2.42474e-14 	0 	0 	
0.825 5.4557e-14 	0 	0 	
0.835 6.06187e-14 	0 	0 	
0.845 -3.03093e-14 	0 	0 	
0.855 2.42475e-14 	0 	0 	
0.865 -1.81856e-14 	0 	0 	
0.875 1.15176e-13 	0 	0 	
0.885 6.06186e-15 	0 	0 	
0.895 -7.88044e-14 	0 	0 	
0.905 9.0928e-14 	0 	0 	
0.915 -7.27424e-14 	0 	0 	
0.925 5.45569e-14 	0 	0 	
0.935 6.06187e-14 	0 	0 	
0.945 -3.03095e-14 	0 	0 	
0.955 6.0619e-15 	0 	0 	
0.965 -4.40721e-25 	0 	0 	
0.975 4.24331e-14 	0 	0 	
0.985 -4.8495e-14 	0 	0 	
0.995 4.8495e-14 	0 	0 	
