0.005 9.04652e-14 	0 	0 	
0.015 3.18304e-14 	0 	0 	
0.025 9.21406e-14 	0 	0 	
0.035 3.68561e-14 	0 	0 	
0.045 6.5336e-14 	0 	0 	
0.055 1.17271e-14 	0 	0 	
0.065 6.19856e-14 	0 	0 	
0.075 1.00517e-13 	0 	0 	
0.085 1.22296e-13 	0 	0 	
0.095 1.90982e-13 	0 	0 	
0.105 -9.71658e-14 	0 	0 	
0.115 1.39049e-13 	0 	0 	
0.125 3.35056e-14 	0 	0 	
0.135 6.36606e-14 	0 	0 	
0.145 3.18305e-14 	0 	0 	
0.155 -1.30672e-13 	0 	0 	
0.165 -9.21405e-14 	0 	0 	
0.175 4.18819e-14 	0 	0 	
0.185 1.12244e-13 	0 	0 	
0.195 -4.18822e-14 	0 	0 	
0.205 -1.8428e-14 	0 	0 	
0.215 -3.35055e-15 	0 	0 	
0.225 -1.24995e-19 	0 	0 	
0.235 9.7166e-14 	0 	0 	
0.245 8.71146e-14 	0 	0 	
0.255 6.53361e-14 	0 	0 	
0.265 -6.19852e-14 	0 	0 	
0.275 1.1727e-13 	0 	0 	
0.285 3.9488e-11 	0 	0 	
0.295 8.87571e-09 	0 	0 	
0.305 8.67546e-07 	0 	0 	
0.315 4.328e-05 	0 	0 	
0.325 0.00112558 	0 	0 	
0.335 0.0168121 	0 	0 	
0.345 0.156194 	0 	0 	
0.355 0.898682 	0 	0 	
0.365 3.40148 	0 	0 	
0.375 9.15578 	0 	0 	
0.385 18.8918 	0 	0 	
0.395 32.2843 	0 	0 	
0.405 48.4506 	0 	0 	
0.415 66.3824 	0 	0 	
0.425 85.0524 	-1.518e-31 	0 	
0.435 103.129 	0 	0 	
0.445 118.286 	0 	0 	
0.455 127.341 	0 	0 	
0.465 129.984 	1.22618e-30 	0 	
0.475 130.194 	0 	0 	
0.485 130.172 	0 	0 	
0.495 130.153 	0 	0 	
0.505 130.138 	0 	0 	
0.515 130.126 	0 	0 	
0.525 130.116 	0 	0 	
0.535 130.107 	0 	0 	
0.545 130.099 	0 	0 	
0.555 130.09 	0 	0 	
0.565 130.082 	0 	0 	
0.575 130.074 	0 	0 	
0.585 130.064 	0 	0 	
0.595 130.052 	0 	0 	
0.605 130.027 	0 	0 	
0.615 129.948 	0 	0 	
0.625 127.052 	0 	0 	
0.635 101.802 	0 	0 	
0.645 77.6106 	0 	0 	
0.655 21.9891 	0 	0 	
0.665 1.22474 	0 	0 	
0.675 0.0416708 	0 	0 	
0.685 0.000965529 	0 	0 	
0.695 1.32101e-05 	0 	0 	
0.705 1.01607e-07 	0 	0 	
0.715 3.59046e-10 	0 	0 	
0.725 4.0835e-13 	0 	0 	
0.735 -1.8847e-14 	0 	0 	
0.745 3.51808e-14 	0 	0 	
0.755 7.5386e-15 	0 	0 	
0.765 2.13601e-14 	0 	0 	
0.775 8.79524e-14 	0 	0 	
0.785 7.41312e-14 	0 	0 	
0.795 -6.78489e-14 	0 	0 	
0.805 4.6489e-14 	0 	0 	
0.815 3.14115e-14 	0 	0 	
0.825 3.30522e-25 	0 	0 	
0.835 -2.51293e-14 	0 	0 	
0.845 6.2824e-15 	0 	0 	
0.855 4.1463e-14 	0 	0 	
0.865 9.42347e-14 	0 	0 	
0.875 -6.2823e-15 	0 	0 	
0.885 1.75905e-14 	0 	0 	
0.895 5.77971e-14 	0 	0 	
0.905 -5.27714e-14 	0 	0 	
0.915 7.1618e-14 	0 	0 	
0.925 1.25647e-14 	0 	0 	
0.935 -2.13599e-14 	0 	0 	
0.945 -4.27197e-14 	0 	0 	
0.955 8.79515e-15 	0 	0 	
0.965 -8.80989e-26 	0 	0 	
0.975 -8.79522e-14 	0 	0 	
0.985 3.39244e-14 	0 	0 	
0.995 -4.27197e-14 	0 	0 	
