0.005 2.01034e-14 	0 	0 	
0.015 -1.50774e-14 	0 	0 	
0.025 8.3764e-14 	0 	0 	
0.035 -5.02583e-15 	0 	0 	
0.045 -8.3766e-15 	0 	0 	
0.055 9.21408e-14 	0 	0 	
0.065 9.71664e-14 	0 	0 	
0.075 8.37645e-15 	0 	0 	
0.085 -3.35056e-15 	0 	0 	
0.095 -9.88417e-14 	0 	0 	
0.105 -1.34021e-14 	0 	0 	
0.115 -1.22295e-13 	0 	0 	
0.125 -6.70114e-14 	0 	0 	
0.135 -5.02585e-15 	0 	0 	
0.145 -5.52843e-14 	0 	0 	
0.155 2.17786e-14 	0 	0 	
0.165 3.35057e-15 	0 	0 	
0.175 -2.51292e-14 	0 	0 	
0.185 2.17784e-14 	0 	0 	
0.195 9.88417e-14 	0 	0 	
0.205 1.79255e-13 	0 	0 	
0.215 1.8428e-14 	0 	0 	
0.225 -1.99996e-19 	0 	0 	
0.235 5.69593e-14 	0 	0 	
0.245 1.00515e-14 	0 	0 	
0.255 -1.00517e-14 	0 	0 	
0.265 -3.68562e-14 	0 	0 	
0.275 5.86346e-14 	0 	0 	
0.285 5.19337e-14 	0 	0 	
0.295 3.35048e-15 	0 	0 	
0.305 -5.69598e-14 	0 	0 	
0.315 -4.85831e-14 	0 	0 	
0.325 -7.53874e-14 	0 	0 	
0.335 -3.13277e-13 	0 	0 	
0.345 -1.10569e-13 	0 	0 	
0.355 7.15106e-10 	0 	0 	
0.365 6.7023e-07 	0 	0 	
0.375 0.000122203 	0 	0 	
0.385 0.00646173 	0 	0 	
0.395 0.129969 	0 	0 	
0.405 1.21153 	0 	0 	
0.415 5.87851 	0 	0 	
0.425 17.2359 	0 	0 	
0.435 35.9937 	0 	0 	
0.445 60.3856 	0 	0 	
0.455 87.4112 	0 	0 	
0.465 112.407 	9.98219e-31 	0 	
0.475 127.224 	0 	0 	
0.485 130.151 	0 	0 	
0.495 130.19 	0 	0 	
0.505 130.16 	0 	0 	
0.515 130.136 	0 	0 	
0.525 130.117 	0 	0 	
0.535 130.099 	0 	0 	
0.545 130.081 	0 	0 	
0.555 130.054 	0 	0 	
0.565 129.9 	0 	0 	
0.575 127.79 	0 	0 	
0.585 112.569 	0 	0 	
0.595 57.0545 	0 	0 	
0.605 5.18926 	0 	0 	
0.615 0.134641 	0 	0 	
0.625 0.00154992 	0 	0 	
0.635 5.93013e-06 	0 	0 	
0.645 4.79898e-09 	0 	0 	
0.655 -5.40277e-14 	0 	0 	
0.665 -2.76421e-14 	0 	0 	
0.675 7.50073e-20 	0 	0 	
0.685 -7.91569e-14 	0 	0 	
0.695 -1.16851e-13 	0 	0 	
0.705 6.40795e-14 	0 	0 	
0.715 -6.28239e-15 	0 	0 	
0.725 -1.25649e-14 	0 	0 	
0.735 -7.03617e-14 	0 	0 	
0.745 5.15147e-14 	0 	0 	
0.755 5.27713e-14 	0 	0 	
0.765 1.75905e-14 	0 	0 	
0.775 5.65408e-14 	0 	0 	
0.785 -6.2824e-15 	0 	0 	
0.795 3.89502e-14 	0 	0 	
0.805 7.16183e-14 	0 	0 	
0.815 -2.26163e-14 	0 	0 	
0.825 -6.2822e-15 	0 	0 	
0.835 2.51293e-14 	0 	0 	
0.845 1.16851e-13 	0 	0 	
0.855 -1.75905e-14 	0 	0 	
0.865 7.16181e-14 	0 	0 	
0.875 1.25646e-14 	0 	0 	
0.885 4.14632e-14 	0 	0 	
0.895 3.5181e-14 	0 	0 	
0.905 3.64376e-14 	0 	0 	
0.915 3.2668e-14 	0 	0 	
0.925 -1.25646e-14 	0 	0 	
0.935 -1.45749e-13 	0 	0 	
0.945 -4.1463e-14 	0 	0 	
0.955 -2.51295e-15 	0 	0 	
0.965 -1.40723e-13 	0 	0 	
0.975 -2.51293e-14 	0 	0 	
0.985 -4.27197e-14 	0 	0 	
0.995 1.32215e-25 	0 	0 	
