0.005 5.48921e-14 	0 	0 	
0.015 9.99286e-14 	0 	0 	
0.025 1.23441e-13 	0 	0 	
0.035 1.38137e-13 	0 	0 	
0.045 1.35198e-13 	0 	0 	
0.055 9.40507e-14 	0 	0 	
0.065 4.99645e-14 	0 	0 	
0.075 5.87815e-15 	0 	0 	
0.085 -6.17207e-14 	0 	0 	
0.095 -1.14624e-13 	0 	0 	
0.105 -1.46954e-13 	0 	0 	
0.115 -1.70467e-13 	0 	0 	
0.125 -1.79284e-13 	0 	0 	
0.135 -2.05736e-13 	0 	0 	
0.145 -2.43944e-13 	-1.79468e-30 	0 	
0.155 -2.55701e-13 	1.63152e-30 	0 	
0.165 -2.58639e-13 	0 	0 	
0.175 -2.38066e-13 	0 	0 	
0.185 -1.38137e-13 	0 	0 	
0.195 -1.17563e-14 	0 	0 	
0.205 4.70254e-14 	0 	0 	
0.215 5.58426e-14 	0 	0 	
0.225 8.52334e-14 	1.63152e-31 	0 	
0.235 1.11685e-13 	1.01154e-29 	0 	
0.245 9.40507e-14 	6.52609e-31 	0 	
0.255 7.93553e-14 	0 	0 	
0.265 7.93554e-14 	0 	0 	
0.275 6.46599e-14 	0 	0 	
0.285 6.17208e-14 	0 	0 	
0.295 9.69897e-14 	0 	0 	
0.305 1.23441e-13 	0 	0 	
0.315 1.08746e-13 	0 	0 	
0.325 7.34772e-14 	0 	0 	
0.335 2.64518e-14 	0 	0 	
0.345 -3.52691e-14 	0 	0 	
0.355 -7.05382e-14 	0 	0 	
0.365 0.331532 	0 	0 	
0.375 3.64899 	0 	0 	
0.385 13.4268 	0 	0 	
0.395 29.0286 	0 	0 	
0.405 47.3635 	0 	0 	
0.415 66.5076 	0 	0 	
0.425 85.2279 	0 	0 	
0.435 102.125 	0 	0 	
0.445 115.604 	0 	0 	
0.455 124.332 	0 	0 	
0.465 128.583 	0 	0 	
0.475 130.126 	0 	0 	
0.485 130.291 	0 	0 	
0.495 129.952 	0 	0 	
0.505 129.791 	0 	0 	
0.515 129.942 	0 	0 	
0.525 130.297 	0 	0 	
0.535 130.63 	0 	0 	
0.545 130.73 	0 	0 	
0.555 130.503 	0 	0 	
0.565 129.972 	0 	0 	
0.575 129.463 	-2.71063e-30 	0 	
0.585 129.349 	-1.86553e-30 	0 	
0.595 129.589 	0 	0 	
0.605 129.791 	0 	0 	
0.615 129.115 	0 	0 	
0.625 123.876 	0 	0 	
0.635 103.285 	0 	0 	
0.645 61.8264 	0 	0 	
0.655 20.7077 	0 	0 	
0.665 2.49391 	0 	0 	
0.675 -6.61293e-15 	0 	0 	
0.685 3.08604e-14 	0 	0 	
0.695 6.39251e-14 	0 	0 	
0.705 4.8495e-14 	0 	0 	
0.715 1.76345e-14 	0 	0 	
0.725 2.64518e-14 	0 	0 	
0.735 5.95165e-14 	0 	0 	
0.745 6.61294e-14 	0 	0 	
0.755 4.40863e-14 	0 	0 	
0.765 3.08604e-14 	0 	0 	
0.775 3.74733e-14 	0 	0 	
0.785 3.96777e-14 	0 	0 	
0.795 2.86561e-14 	0 	0 	
0.805 2.64518e-14 	0 	0 	
0.815 2.64518e-14 	-8.07603e-30 	0 	
0.825 1.32259e-14 	0 	0 	
0.835 -4.40863e-15 	0 	0 	
0.845 -2.20431e-14 	0 	0 	
0.855 -3.74733e-14 	0 	0 	
0.865 -4.40863e-14 	0 	0 	
0.875 -5.73121e-14 	0 	0 	
0.885 -7.71509e-14 	0 	0 	
0.895 -7.05381e-14 	0 	0 	
0.905 -4.1882e-14 	0 	0 	
0.915 -1.98389e-14 	0 	0 	
0.925 -1.76345e-14 	0 	0 	
0.935 -8.81725e-15 	0 	0 	
0.945 3.30647e-14 	0 	0 	
0.955 8.15596e-14 	0 	0 	
0.965 1.08011e-13 	0 	0 	
0.975 1.1242e-13 	0 	0 	
0.985 9.91942e-14 	0 	0 	
0.995 6.7281e-14 	0 	0 	
