0.005 4.0718e-10 	0 	0 	
0.015 -1.5066e-10 	0 	0 	
0.025 7.1396e-10 	0 	0 	
0.035 1.09799e-09 	0 	0 	
0.045 1.86045e-10 	0 	0 	
0.055 1.30648e-09 	0 	0 	
0.065 6.36193e-10 	0 	0 	
0.075 3.039e-11 	0 	0 	
0.085 -2.75395e-10 	0 	0 	
0.095 1.13225e-09 	0 	0 	
0.105 6.3831e-10 	0 	0 	
0.115 -6.03985e-10 	0 	0 	
0.125 -6.078e-11 	0 	0 	
0.135 -3.0035e-11 	0 	0 	
0.145 -2.07795e-10 	0 	0 	
0.155 -1.77465e-10 	0 	0 	
0.165 1.81285e-10 	0 	0 	
0.175 -2.4189e-10 	0 	0 	
0.185 -8.51393e-10 	0 	0 	
0.195 4.58968e-10 	0 	0 	
0.205 3.30062e-10 	0 	0 	
0.215 -1.4907e-10 	0 	0 	
0.225 7.44529e-10 	0 	0 	
0.235 6.84864e-10 	0 	0 	
0.245 9.44095e-10 	0 	0 	
0.255 2.1326e-10 	0 	0 	
0.265 -2.1261e-10 	0 	0 	
0.275 7.0244e-10 	0 	0 	
0.285 1.39665e-10 	0 	0 	
0.295 4.9212e-10 	0 	0 	
0.305 -1.87514e-10 	0 	0 	
0.315 2.398e-11 	0 	0 	
0.325 4.55915e-10 	0 	0 	
0.335 1.41076e-10 	0 	0 	
0.345 -2.9467e-10 	0 	0 	
0.355 1.15565e-10 	0 	0 	
0.365 -2.9773e-10 	0 	0 	
0.375 -4.0195e-10 	0 	0 	
0.385 4.63317e-10 	0 	0 	
0.395 2.77625e-10 	0 	0 	
0.405 -2.85505e-10 	0 	0 	
0.415 -2.2754e-10 	0 	0 	
0.425 4.3863e-10 	0 	0 	
0.435 -7.1849e-10 	0 	0 	
0.445 4.77484e-10 	0 	0 	
0.455 -4.54854e-10 	0 	0 	
0.465 -1.2832e-10 	0 	0 	
0.475 -4.5103e-10 	0 	0 	
0.485 -1.38195e+06 	0 	0 	
0.495 -3.64783e+12 	0 	0 	
0.505 1.17883e+18 	0 	0 	
0.515 4.08173e+11 	0 	0 	
0.525 5.96241e-08 	0 	0 	
0.535 5.11225e-10 	0 	0 	
0.545 1.10965e-10 	0 	0 	
0.555 -1.1207e-10 	0 	0 	
0.565 -4.4289e-10 	0 	0 	
0.575 -3.1698e-10 	0 	0 	
0.585 4.0079e-10 	0 	0 	
0.595 -5.41245e-10 	0 	0 	
0.605 -8.62767e-10 	0 	0 	
0.615 2.97804e-10 	0 	0 	
0.625 -9.1695e-10 	0 	0 	
0.635 1.04396e-09 	0 	0 	
0.645 8.03827e-10 	0 	0 	
0.655 2.9595e-10 	0 	0 	
0.665 5.01965e-10 	0 	0 	
0.675 -6.92772e-10 	0 	0 	
0.685 2.29555e-10 	0 	0 	
0.695 -5.30668e-10 	0 	0 	
0.705 1.0907e-10 	0 	0 	
0.715 -8.5965e-11 	0 	0 	
0.725 -6.43308e-10 	0 	0 	
0.735 -3.5106e-10 	0 	0 	
0.745 8.0153e-10 	0 	0 	
0.755 1.1793e-10 	0 	0 	
0.765 2.17915e-10 	0 	0 	
0.775 1.8331e-10 	0 	0 	
0.785 4.25475e-10 	0 	0 	
0.795 9.69061e-10 	0 	0 	
0.805 1.73395e-10 	0 	0 	
0.815 -9.26781e-10 	0 	0 	
0.825 5.6382e-10 	0 	0 	
0.835 7.734e-11 	0 	0 	
0.845 1.84455e-10 	0 	0 	
0.855 -4.39145e-10 	0 	0 	
0.865 -1.05185e-09 	0 	0 	
0.875 -9.92645e-10 	0 	0 	
0.885 1.32999e-09 	0 	0 	
0.895 -7.0055e-11 	0 	0 	
0.905 -6.2955e-10 	0 	0 	
0.915 7.92495e-10 	0 	0 	
0.925 -9.94145e-11 	0 	0 	
0.935 -2.77745e-11 	0 	0 	
0.945 8.9773e-10 	0 	0 	
0.955 -8.6387e-10 	0 	0 	
0.965 6.653e-11 	0 	0 	
0.975 9.28015e-11 	0 	0 	
0.985 -7.03085e-10 	0 	0 	
0.995 5.4539e-10 	0 	0 	
