0.005 4.90141e-14 	0 	0 	
0.015 8.22944e-14 	0 	0 	
0.025 9.40508e-14 	0 	0 	
0.035 9.40508e-14 	0 	0 	
0.045 9.40508e-14 	0 	0 	
0.055 7.34772e-14 	0 	0 	
0.065 3.23299e-14 	0 	0 	
0.075 -1.46955e-14 	0 	0 	
0.085 -4.70254e-14 	0 	0 	
0.095 -3.5269e-14 	0 	0 	
0.105 -3.82081e-14 	0 	0 	
0.115 -8.81726e-14 	0 	0 	
0.125 -1.44015e-13 	0 	0 	
0.135 -1.99858e-13 	0 	0 	
0.145 -2.38066e-13 	-3.26305e-31 	0 	
0.155 -2.20432e-13 	0 	0 	
0.165 -1.70467e-13 	0 	0 	
0.175 -1.32259e-13 	0 	0 	
0.185 -8.52335e-14 	0 	0 	
0.195 -8.81725e-15 	0 	0 	
0.205 4.11472e-14 	0 	0 	
0.215 4.40863e-14 	0 	0 	
0.225 4.99645e-14 	0 	0 	
0.235 4.99645e-14 	6.52609e-31 	0 	
0.245 6.17208e-14 	0 	0 	
0.255 1.02868e-13 	0 	0 	
0.265 1.02868e-13 	0 	0 	
0.275 6.46598e-14 	0 	0 	
0.285 5.87817e-14 	0 	0 	
0.295 7.05381e-14 	0 	0 	
0.305 6.7599e-14 	0 	0 	
0.315 5.87817e-14 	0 	0 	
0.325 3.233e-14 	0 	0 	
0.335 -1.17563e-14 	0 	0 	
0.345 -5.87817e-14 	0 	0 	
0.355 -8.52335e-14 	0 	0 	
0.365 -7.64163e-14 	0 	0 	
0.375 -6.7599e-14 	0 	0 	
0.385 -7.93553e-14 	0 	0 	
0.395 0.5701 	0 	0 	
0.405 5.15465 	0 	0 	
0.415 17.7204 	0 	0 	
0.425 37.054 	0 	0 	
0.435 59.1828 	0 	0 	
0.445 81.3796 	0 	0 	
0.455 101.495 	0 	0 	
0.465 117.35 	0 	0 	
0.475 126.815 	0 	0 	
0.485 130.178 	0 	0 	
0.495 130.706 	0 	0 	
0.505 130.62 	0 	0 	
0.515 130.386 	0 	0 	
0.525 130.128 	0 	0 	
0.535 129.838 	0 	0 	
0.545 129.663 	0 	0 	
0.555 129.912 	0 	0 	
0.565 130.513 	0 	0 	
0.575 130.557 	-1.35099e-30 	0 	
0.585 127.171 	-5.08926e-31 	0 	
0.595 110.106 	0 	0 	
0.605 70.5712 	0 	0 	
0.615 26.538 	0 	0 	
0.625 4.04268 	0 	0 	
0.635 -1.10216e-13 	0 	0 	
0.645 -4.84948e-14 	0 	0 	
0.655 -4.4086e-15 	0 	0 	
0.665 -3.30647e-14 	0 	0 	
0.675 -4.40863e-14 	0 	0 	
0.685 1.76345e-14 	0 	0 	
0.695 5.95165e-14 	0 	0 	
0.705 3.96777e-14 	0 	0 	
0.715 3.74733e-14 	0 	0 	
0.725 8.59682e-14 	0 	0 	
0.735 1.19033e-13 	0 	0 	
0.745 8.81725e-14 	0 	0 	
0.755 3.52691e-14 	0 	0 	
0.765 -2.2043e-15 	0 	0 	
0.775 -2.42474e-14 	0 	0 	
0.785 -3.96777e-14 	0 	0 	
0.795 -5.51079e-14 	0 	0 	
0.805 -4.8495e-14 	0 	0 	
0.815 -2.42475e-14 	-4.89455e-31 	0 	
0.825 -4.40863e-15 	0 	0 	
0.835 1.98388e-14 	0 	0 	
0.845 4.40863e-14 	0 	0 	
0.855 5.51079e-14 	0 	0 	
0.865 5.51079e-14 	0 	0 	
0.875 2.20432e-14 	0 	0 	
0.885 -4.1882e-14 	0 	0 	
0.895 -7.27424e-14 	0 	0 	
0.905 -4.1882e-14 	0 	0 	
0.915 6.61295e-15 	0 	0 	
0.925 2.42475e-14 	0 	0 	
0.935 2.64518e-14 	0 	0 	
0.945 3.08604e-14 	0 	0 	
0.955 2.64518e-14 	0 	0 	
0.965 3.30647e-14 	0 	0 	
0.975 4.1882e-14 	0 	0 	
0.985 2.42475e-14 	0 	0 	
0.995 4.40863e-15 	0 	0 	
