0.005 1.0228e-14 	0 	0 	
0.015 -1.5342e-13 	0 	0 	
0.025 1.70465e-14 	0 	0 	
0.035 -1.90923e-13 	0 	0 	
0.045 -6.8187e-15 	0 	0 	
0.055 6.13683e-14 	0 	0 	
0.065 -6.1368e-14 	0 	0 	
0.075 -6.81868e-14 	0 	0 	
0.085 8.18239e-14 	0 	0 	
0.095 1.87514e-13 	0 	0 	
0.105 -1.0569e-13 	0 	0 	
0.115 4.77306e-14 	0 	0 	
0.125 -6.81869e-14 	0 	0 	
0.135 3.40928e-15 	0 	0 	
0.145 1.5342e-13 	0 	0 	
0.155 -6.47772e-14 	0 	0 	
0.165 1.02278e-14 	0 	0 	
0.175 1.70465e-14 	0 	0 	
0.185 2.11379e-13 	-5.44111e-30 	0 	
0.195 -3.75024e-14 	0 	0 	
0.205 1.22736e-13 	0 	0 	
0.215 5.11399e-14 	0 	0 	
0.225 6.81869e-14 	0 	0 	
0.235 -5.8764e-25 	0 	0 	
0.245 1.46602e-13 	0 	0 	
0.255 -1.70463e-14 	-4.96798e-30 	0 	
0.265 5.7959e-14 	-2.48399e-30 	0 	
0.275 -8.52333e-14 	0 	0 	
0.285 -4.43214e-14 	0 	0 	
0.295 -2.11379e-13 	0 	0 	
0.305 -2.42063e-13 	0 	0 	
0.315 6.47774e-14 	0 	0 	
0.325 -3.40935e-14 	0 	0 	
0.335 -2.04559e-14 	0 	0 	
0.345 3.06841e-14 	0 	0 	
0.355 3.75029e-14 	-2.24742e-30 	0 	
0.365 -3.06842e-14 	0 	0 	
0.375 9.73368e-12 	0 	0 	
0.385 4.47953e-07 	0 	0 	
0.395 0.000195025 	0 	0 	
0.405 0.0150672 	0 	0 	
0.415 0.346952 	0 	0 	
0.425 3.01318 	0 	0 	
0.435 12.5824 	0 	0 	
0.445 32.0178 	0 	0 	
0.455 59.8085 	0 	0 	
0.465 91.4765 	0 	0 	
0.475 118.646 	0 	0 	
0.485 129.529 	0 	0 	
0.495 130.206 	7.14693e-31 	0 	
0.505 130.168 	0 	0 	
0.515 130.138 	0 	0 	
0.525 130.112 	0 	0 	
0.535 130.087 	0 	0 	
0.545 130.035 	0 	0 	
0.555 129.107 	0 	0 	
0.565 117.956 	0 	0 	
0.575 79.082 	0 	0 	
0.585 11.9462 	0 	0 	
0.595 0.272746 	0 	0 	
0.605 0.0021014 	0 	0 	
0.615 3.31985e-06 	0 	0 	
0.625 4.64863e-11 	0 	0 	
0.635 -1.12508e-13 	0 	0 	
0.645 -1.5342e-14 	0 	0 	
0.655 1.20179e-13 	0 	0 	
0.665 -3.3241e-14 	0 	0 	
0.675 2.557e-14 	0 	0 	
0.685 9.46095e-14 	0 	0 	
0.695 -4.8583e-14 	0 	0 	
0.705 1.35521e-13 	0 	0 	
0.715 1.7899e-14 	0 	0 	
0.725 1.2785e-14 	0 	0 	
0.735 1.12508e-13 	0 	0 	
0.745 -7.41529e-14 	0 	0 	
0.755 1.30407e-13 	0 	0 	
0.765 4.8583e-14 	0 	0 	
0.775 -6.3925e-14 	0 	0 	
0.785 4.60257e-14 	0 	0 	
0.795 3.0684e-14 	0 	0 	
0.805 4.4073e-26 	0 	0 	
0.815 -3.3241e-14 	0 	0 	
0.825 -7.31712e-24 	0 	0 	
0.835 -7.4153e-14 	0 	0 	
0.845 1.66205e-13 	0 	0 	
0.855 8.18244e-14 	0 	0 	
0.865 7.9267e-14 	0 	0 	
0.875 -5.48299e-24 	0 	0 	
0.885 -3.5798e-14 	0 	0 	
0.895 5.6254e-14 	0 	0 	
0.905 -1.04837e-13 	0 	0 	
0.915 7.67135e-15 	0 	0 	
0.925 -1.27851e-14 	0 	0 	
0.935 -4.0912e-14 	0 	0 	
0.945 1.2785e-13 	0 	0 	
0.955 1.20179e-13 	0 	0 	
0.965 -4.34691e-14 	0 	0 	
0.975 2.557e-14 	0 	0 	
0.985 -8.43813e-14 	0 	0 	
0.995 4.6026e-14 	0 	0 	
