0.005 -7.05379e-14 	0 	0 	
0.015 1.05807e-13 	0 	0 	
0.025 2.82152e-13 	0 	0 	
0.035 -7.89657e-24 	0 	0 	
0.045 7.0538e-14 	0 	0 	
0.055 1.41076e-13 	0 	0 	
0.065 7.05379e-14 	0 	0 	
0.075 1.41076e-13 	0 	0 	
0.085 7.05381e-14 	0 	0 	
0.095 -1.41076e-13 	0 	0 	
0.105 1.31622e-24 	0 	0 	
0.115 -3.5269e-14 	0 	0 	
0.125 1.05807e-13 	-4.03801e-30 	0 	
0.135 -1.05807e-13 	0 	0 	
0.145 -1.31637e-24 	0 	0 	
0.155 -1.76345e-13 	0 	0 	
0.165 -1.05807e-13 	0 	0 	
0.175 -1.05807e-13 	-8.81022e-30 	0 	
0.185 3.5269e-14 	-8.07603e-30 	0 	
0.195 1.41076e-13 	0 	0 	
0.205 2.6301e-24 	0 	0 	
0.215 1.41076e-13 	0 	0 	
0.225 -1.05807e-13 	0 	0 	
0.235 -7.0538e-14 	0 	0 	
0.245 -1.05807e-13 	0 	0 	
0.255 -3.5269e-14 	-9.29967e-30 	0 	
0.265 -1.05807e-13 	-9.05493e-30 	0 	
0.275 -3.5269e-14 	0 	0 	
0.285 -1.41076e-13 	0 	0 	
0.295 -1.05807e-13 	0 	0 	
0.305 3.52689e-14 	0 	0 	
0.315 7.60751e-11 	0 	0 	
0.325 4.67736e-08 	0 	0 	
0.335 7.23918e-06 	0 	0 	
0.345 0.000416287 	0 	0 	
0.355 0.0107888 	-8.07623e-30 	0 	
0.365 0.14101 	0 	0 	
0.375 1.00602 	0 	0 	
0.385 4.25557 	0 	0 	
0.395 11.8804 	0 	0 	
0.405 24.5904 	-2.36466e-30 	0 	
0.415 41.5932 	3.87292e-30 	0 	
0.425 61.4928 	-1.17685e-30 	0 	
0.435 82.7818 	4.72005e-31 	0 	
0.445 103.516 	-3.36475e-31 	0 	
0.455 120.266 	1.06765e-30 	0 	
0.465 128.651 	-1.83359e-31 	0 	
0.475 130.159 	0 	0 	
0.485 -9515.35 	1.73513e-33 	0 	
0.495 -4.5031e+16 	1.35022e-40 	0 	
0.505 -9.36059e+30 	-8.06304e-58 	0 	
0.515 -2.00115e+46 	0 	0 	
0.525 -1.02445e+51 	0 	0 	
0.535 1.98803e+52 	0 	0 	
0.545 2.76006e+50 	0 	0 	
0.555 2.17916e+47 	0 	0 	
0.565 4.50478e+44 	0 	0 	
0.575 7.94117e+57 	0 	0 	
0.585 2.02228e+51 	0 	0 	
0.595 1.11047e+46 	0 	0 	
0.605 2.04748e+43 	0 	0 	
0.615 9.2041e+36 	0 	0 	
0.625 4.06322e+22 	0 	0 	
0.635 1.02953e+17 	0 	0 	
0.645 1.47479e+11 	0 	0 	
0.655 2618.34 	0 	0 	
0.665 0.00011414 	0 	0 	
0.675 5.16511e-07 	0 	0 	
0.685 6.33732e-10 	0 	0 	
0.695 1.46954e-23 	0 	0 	
0.705 -7.93553e-14 	0 	0 	
0.715 -1.32259e-13 	0 	0 	
0.725 1.05807e-13 	0 	0 	
0.735 -1.85162e-13 	0 	0 	
0.745 5.29035e-14 	0 	0 	
0.755 5.29035e-14 	0 	0 	
0.765 1.95939e-24 	0 	0 	
0.775 -5.29035e-14 	0 	0 	
0.785 -5.29035e-14 	0 	0 	
0.795 -5.87815e-24 	0 	0 	
0.805 5.29036e-14 	0 	0 	
0.815 5.29035e-14 	0 	0 	
0.825 2.6452e-14 	0 	0 	
0.835 7.93552e-14 	0 	0 	
0.845 5.29037e-14 	0 	0 	
0.855 1.32259e-13 	0 	0 	
0.865 1.58711e-13 	0 	0 	
0.875 2.64515e-14 	0 	0 	
0.885 -1.05807e-13 	0 	0 	
0.895 -2.38066e-13 	0 	0 	
0.905 1.05807e-13 	0 	0 	
0.915 -2.6452e-14 	0 	0 	
0.925 2.11614e-13 	0 	0 	
0.935 2.64517e-14 	0 	0 	
0.945 -1.32259e-13 	0 	0 	
0.955 -2.6452e-14 	0 	0 	
0.965 7.93555e-14 	0 	0 	
0.975 -1.05807e-13 	0 	0 	
0.985 1.5871e-13 	0 	0 	
0.995 1.05807e-13 	0 	0 	
