0.005 4.90141e-14 	0 	0 	
0.015 8.22944e-14 	0 	0 	
0.025 9.99288e-14 	0 	0 	
0.035 9.11115e-14 	0 	0 	
0.045 3.52689e-14 	0 	0 	
0.055 -2.35127e-14 	0 	0 	
0.065 -2.93909e-14 	0 	0 	
0.075 -2.05736e-14 	0 	0 	
0.085 -2.64518e-14 	0 	0 	
0.095 -1.17563e-14 	0 	0 	
0.105 1.17563e-14 	0 	0 	
0.115 1.17563e-14 	0 	0 	
0.125 -1.17563e-14 	0 	0 	
0.135 -5.58426e-14 	0 	0 	
0.145 -9.99289e-14 	-4.73142e-30 	0 	
0.155 -1.26381e-13 	0 	0 	
0.165 -1.58711e-13 	0 	0 	
0.175 -2.05736e-13 	0 	0 	
0.185 -2.20432e-13 	0 	0 	
0.195 -1.67528e-13 	0 	0 	
0.205 -8.81727e-14 	0 	0 	
0.215 -2.64518e-14 	0 	0 	
0.225 4.11471e-14 	0 	0 	
0.235 8.52333e-14 	9.46283e-30 	0 	
0.245 7.0538e-14 	0 	0 	
0.255 6.46599e-14 	0 	0 	
0.265 6.75989e-14 	0 	0 	
0.275 3.23299e-14 	0 	0 	
0.285 2.93908e-15 	0 	0 	
0.295 0 	0 	0 	
0.305 0 	0 	0 	
0.315 -2.93907e-15 	0 	0 	
0.325 2.9391e-15 	0 	0 	
0.335 8.81725e-15 	0 	0 	
0.345 -2.9391e-15 	0 	0 	
0.355 -8.81725e-15 	0 	0 	
0.365 -2.05736e-14 	0 	0 	
0.375 -4.70253e-14 	0 	0 	
0.385 0.85615 	0 	0 	
0.395 6.2727 	0 	0 	
0.405 19.5287 	0 	0 	
0.415 38.6909 	0 	0 	
0.425 60.1834 	0 	0 	
0.435 81.9513 	0 	0 	
0.445 101.924 	0 	0 	
0.455 117.56 	0 	0 	
0.465 126.576 	0 	0 	
0.475 129.554 	0 	0 	
0.485 129.953 	0 	0 	
0.495 129.996 	0 	0 	
0.505 130.251 	0 	0 	
0.515 130.675 	0 	0 	
0.525 130.772 	0 	0 	
0.535 130.47 	0 	0 	
0.545 129.974 	0 	0 	
0.555 129.363 	0 	0 	
0.565 129.06 	0 	0 	
0.575 129.695 	-3.39071e-30 	0 	
0.585 130.127 	-2.03221e-30 	0 	
0.595 129.069 	0 	0 	
0.605 123.061 	0 	0 	
0.615 100.208 	0 	0 	
0.625 57.0717 	0 	0 	
0.635 17.5177 	0 	0 	
0.645 1.68361 	0 	0 	
0.655 1.32259e-14 	0 	0 	
0.665 2.20433e-15 	0 	0 	
0.675 4.40865e-15 	0 	0 	
0.685 2.64518e-14 	0 	0 	
0.695 4.1882e-14 	0 	0 	
0.705 5.73122e-14 	0 	0 	
0.715 5.73122e-14 	0 	0 	
0.725 6.61295e-14 	0 	0 	
0.735 8.81728e-14 	0 	0 	
0.745 6.61295e-14 	0 	0 	
0.755 2.42475e-14 	0 	0 	
0.765 4.40863e-15 	0 	0 	
0.775 -4.40862e-15 	0 	0 	
0.785 -2.20431e-14 	0 	0 	
0.795 -2.64518e-14 	0 	0 	
0.805 2.2043e-15 	0 	0 	
0.815 1.76345e-14 	-7.09712e-30 	0 	
0.825 -2.2043e-15 	0 	0 	
0.835 -2.86561e-14 	0 	0 	
0.845 -3.74734e-14 	0 	0 	
0.855 -3.08604e-14 	0 	0 	
0.865 -2.42475e-14 	0 	0 	
0.875 -2.64518e-14 	0 	0 	
0.885 -4.84949e-14 	0 	0 	
0.895 -8.15596e-14 	0 	0 	
0.905 -7.49467e-14 	0 	0 	
0.915 -3.08604e-14 	0 	0 	
0.925 -1.32259e-14 	0 	0 	
0.935 -8.81725e-15 	0 	0 	
0.945 3.30646e-14 	0 	0 	
0.955 9.03766e-14 	0 	0 	
0.965 1.05807e-13 	0 	0 	
0.975 8.37639e-14 	0 	0 	
0.985 6.61294e-14 	0 	0 	
0.995 4.89007e-14 	0 	0 	
