0.005 -1.05807e-13 	0 	0 	
0.015 3.5269e-14 	0 	0 	
0.025 -1.41076e-13 	0 	0 	
0.035 2.46883e-13 	0 	0 	
0.045 3.76361e-29 	0 	0 	
0.055 -1.76345e-13 	0 	0 	
0.065 -2.46883e-13 	0 	0 	
0.075 1.41076e-13 	0 	0 	
0.085 1.05807e-13 	0 	0 	
0.095 3.5269e-14 	0 	0 	
0.105 -1.05807e-13 	0 	0 	
0.115 2.11614e-13 	0 	0 	
0.125 -6.08153e-30 	-5.26166e-30 	0 	
0.135 -7.05381e-14 	0 	0 	
0.145 -1.41076e-13 	0 	0 	
0.155 -3.5269e-14 	0 	0 	
0.165 1.41076e-13 	0 	0 	
0.175 -1.05807e-13 	-1.10128e-29 	0 	
0.185 7.0538e-14 	-9.78913e-30 	0 	
0.195 7.0538e-14 	0 	0 	
0.205 -1.05807e-13 	0 	0 	
0.215 7.05381e-14 	0 	0 	
0.225 -3.5269e-14 	0 	0 	
0.235 -7.05379e-14 	0 	0 	
0.245 -7.0538e-14 	0 	0 	
0.255 7.0538e-14 	-1.15022e-29 	0 	
0.265 7.05385e-14 	-1.0768e-29 	0 	
0.275 1.72818e-12 	0 	0 	
0.285 8.92836e-10 	0 	0 	
0.295 1.42363e-07 	0 	0 	
0.305 9.87581e-06 	0 	0 	
0.315 0.00034419 	0 	0 	
0.325 0.00659165 	0 	0 	
0.335 0.0736482 	0 	0 	
0.345 0.502401 	0 	0 	
0.355 2.19569 	-9.84728e-30 	0 	
0.365 6.57186 	0 	0 	
0.375 14.648 	0 	0 	
0.385 26.3981 	0 	0 	
0.395 41.0695 	0 	0 	
0.405 57.7311 	-2.90998e-30 	0 	
0.415 75.494 	3.07698e-31 	0 	
0.425 93.3933 	9.77405e-31 	0 	
0.435 -32439.3 	2.64119e-50 	0 	
0.445 -6.71949e+13 	-2.3302e-25 	0 	
0.455 -4.41071e+29 	-2.471e-34 	0 	
0.465 -7.13254e+46 	2.57121e-54 	0 	
0.475 -8.3703e+52 	0 	0 	
0.485 -1.14951e+59 	6.09823e-70 	0 	
0.495 -3.56653e+65 	3.7913e-72 	0 	
0.505 1.39012e+68 	-2.91225e-69 	0 	
0.515 -1.4411e+71 	0 	0 	
0.525 -7.80503e+78 	0 	0 	
0.535 -1.05864e+80 	0 	0 	
0.545 5.69632e+80 	0 	0 	
0.555 -2.82211e+89 	0 	0 	
0.565 -5.95844e+93 	0 	0 	
0.575 2.55567e+90 	0 	0 	
0.585 2.46713e+88 	0 	0 	
0.595 -9.80429e+78 	0 	0 	
0.605 3.70662e+81 	0 	0 	
0.615 6.4023e+79 	0 	0 	
0.625 4.48904e+63 	0 	0 	
0.635 5.24547e+57 	0 	0 	
0.645 3.32488e+49 	0 	0 	
0.655 3.71078e+43 	0 	0 	
0.665 3.15321e+34 	0 	0 	
0.675 -3.78417e+29 	0 	0 	
0.685 -5.2453e+37 	0 	0 	
0.695 6.24757e+28 	0 	0 	
0.705 2.33075e-06 	0 	0 	
0.715 1.02559e-08 	0 	0 	
0.725 1.68233e-11 	0 	0 	
0.735 -5.29035e-14 	0 	0 	
0.745 -7.93552e-14 	0 	0 	
0.755 2.6452e-14 	0 	0 	
0.765 1.32259e-13 	0 	0 	
0.775 -2.38066e-13 	0 	0 	
0.785 -2.64515e-14 	0 	0 	
0.795 -2.64517e-14 	0 	0 	
0.805 1.85162e-13 	0 	0 	
0.815 1.05807e-13 	0 	0 	
0.825 1.05807e-13 	0 	0 	
0.835 -7.93555e-14 	0 	0 	
0.845 7.9355e-14 	0 	0 	
0.855 -4.12377e-30 	0 	0 	
0.865 -2.64518e-14 	0 	0 	
0.875 5.29035e-14 	0 	0 	
0.885 1.05807e-13 	0 	0 	
0.895 2.64517e-14 	0 	0 	
0.905 1.85162e-13 	0 	0 	
0.915 2.6452e-14 	0 	0 	
0.925 1.05807e-13 	0 	0 	
0.935 -5.29035e-14 	0 	0 	
0.945 -5.29035e-14 	0 	0 	
0.955 -2.64518e-14 	0 	0 	
0.965 2.6452e-14 	0 	0 	
0.975 -5.29035e-14 	0 	0 	
0.985 5.29036e-14 	0 	0 	
0.995 -5.29035e-14 	0 	0 	
