0.005 8.0825e-15 	0 	0 	
0.015 -1.37402e-13 	0 	0 	
0.025 1.6165e-14 	0 	0 	
0.035 8.08249e-15 	0 	0 	
0.045 -3.233e-14 	0 	0 	
0.055 -3.233e-14 	0 	0 	
0.065 1.6165e-14 	0 	0 	
0.075 -3.23295e-14 	0 	0 	
0.085 3.233e-14 	0 	0 	
0.095 -4.04125e-14 	0 	0 	
0.105 -1.6165e-14 	0 	0 	
0.115 -8.89074e-14 	0 	0 	
0.125 1.6165e-14 	0 	0 	
0.135 -3.23296e-14 	0 	0 	
0.145 3.23299e-14 	0 	0 	
0.155 8.0825e-14 	0 	0 	
0.165 8.08246e-14 	0 	0 	
0.175 -8.89075e-14 	0 	0 	
0.185 -9.69896e-14 	0 	0 	
0.195 -1.6165e-14 	0 	0 	
0.205 -9.69901e-14 	0 	0 	
0.215 4.82269e-20 	0 	0 	
0.225 6.46599e-14 	0 	0 	
0.235 -1.21237e-13 	0 	0 	
0.245 -1.61646e-14 	0 	0 	
0.255 6.466e-14 	0 	0 	
0.265 6.466e-14 	0 	0 	
0.275 -4.04125e-14 	0 	0 	
0.285 0 	0 	0 	
0.295 -1.6165e-14 	0 	0 	
0.305 7.27425e-14 	0 	0 	
0.315 -2.42475e-14 	4.48668e-31 	0 	
0.325 4.8495e-14 	0 	0 	
0.335 2.42475e-14 	-4.48668e-31 	0 	
0.345 7.27424e-14 	0 	0 	
0.355 1.13155e-13 	-2.24334e-31 	0 	
0.365 2.42475e-14 	8.97336e-31 	0 	
0.375 9.69899e-14 	0 	0 	
0.385 -1.6165e-14 	0 	0 	
0.395 4.8495e-14 	0 	0 	
0.405 -8.08262e-15 	0 	0 	
0.415 -8.0825e-15 	0 	0 	
0.425 8.08262e-15 	0 	0 	
0.435 -8.08243e-15 	0 	0 	
0.445 5.65771e-14 	0 	0 	
0.455 8.08247e-14 	0 	0 	
0.465 -4.04125e-14 	-4.48668e-31 	0 	
0.475 8.0825e-14 	0 	0 	
0.485 0.772905 	0 	0 	
0.495 52.64 	0 	0 	
0.505 110.544 	0 	0 	
0.515 3.21966 	0 	0 	
0.525 -3.03093e-14 	0 	0 	
0.535 -1.21238e-14 	0 	0 	
0.545 -3.03094e-14 	0 	0 	
0.555 -9.69899e-14 	0 	0 	
0.565 -4.24332e-14 	0 	0 	
0.575 -3.03094e-14 	0 	0 	
0.585 -7.88044e-14 	0 	0 	
0.595 -1.21238e-14 	0 	0 	
0.605 -3.03094e-14 	0 	0 	
0.615 1.21237e-14 	0 	0 	
0.625 1.81857e-14 	0 	0 	
0.635 6.06186e-15 	0 	0 	
0.645 -3.03095e-14 	0 	0 	
0.655 6.06188e-14 	0 	0 	
0.665 -5.45569e-14 	0 	0 	
0.675 -5.45565e-14 	0 	0 	
0.685 1.81856e-14 	0 	0 	
0.695 1.81856e-14 	0 	0 	
0.705 1.15176e-13 	0 	0 	
0.715 6.06186e-15 	0 	0 	
0.725 -9.699e-14 	0 	0 	
0.735 2.42475e-14 	0 	0 	
0.745 6.66806e-14 	0 	0 	
0.755 1.81856e-14 	0 	0 	
0.765 6.06186e-15 	0 	0 	
0.775 -4.2433e-14 	0 	0 	
0.785 -5.45569e-14 	0 	0 	
0.795 -1.329e-21 	0 	0 	
0.805 7.27425e-14 	0 	0 	
0.815 -1.21237e-14 	0 	0 	
0.825 9.69899e-14 	0 	0 	
0.835 6.06186e-15 	0 	0 	
0.845 3.03093e-14 	0 	0 	
0.855 -6.06183e-15 	0 	0 	
0.865 2.42475e-14 	0 	0 	
0.875 -5.45569e-14 	0 	0 	
0.885 -1.21237e-14 	0 	0 	
0.895 6.66807e-14 	0 	0 	
0.905 -1.21237e-14 	0 	0 	
0.915 -7.27424e-14 	0 	0 	
0.925 5.45569e-14 	0 	0 	
0.935 4.2433e-14 	0 	0 	
0.945 -1.81857e-14 	0 	0 	
0.955 1.03052e-13 	0 	0 	
0.965 -5.45569e-14 	0 	0 	
0.975 9.699e-14 	0 	0 	
0.985 -4.8495e-14 	0 	0 	
0.995 4.24332e-14 	0 	0 	
