0.005 9.88707e-14 	0 	0 	
0.015 -3.0684e-14 	0 	0 	
0.025 5.114e-14 	0 	0 	
0.035 7.50054e-14 	0 	0 	
0.045 3.4093e-15 	0 	0 	
0.055 -4.09123e-14 	0 	0 	
0.065 1.3637e-14 	0 	0 	
0.075 -1.36374e-13 	0 	0 	
0.085 -3.40955e-15 	0 	0 	
0.095 1.36373e-14 	0 	0 	
0.105 2.14789e-13 	0 	0 	
0.115 4.09121e-14 	0 	0 	
0.125 -6.81868e-14 	0 	0 	
0.135 -5.114e-14 	0 	0 	
0.145 6.13679e-14 	0 	0 	
0.155 -9.88707e-14 	0 	0 	
0.165 1.02279e-14 	0 	0 	
0.175 1.70466e-14 	0 	0 	
0.185 1.0228e-13 	-6.86053e-30 	0 	
0.195 -1.70467e-14 	0 	0 	
0.205 1.97742e-13 	0 	0 	
0.215 1.50011e-13 	0 	0 	
0.225 1.70467e-13 	0 	0 	
0.235 1.22736e-13 	0 	0 	
0.245 2.48882e-13 	0 	0 	
0.255 8.52337e-14 	-7.09712e-30 	0 	
0.265 -9.2052e-14 	-3.43027e-30 	0 	
0.275 -1.70467e-14 	0 	0 	
0.285 -2.38655e-14 	0 	0 	
0.295 1.46602e-13 	0 	0 	
0.305 -7.15962e-14 	0 	0 	
0.315 -5.45496e-14 	0 	0 	
0.325 8.52332e-14 	0 	0 	
0.335 4.09122e-14 	0 	0 	
0.345 3.58169e-10 	0 	0 	
0.355 3.30436e-07 	-3.07542e-30 	0 	
0.365 5.92398e-05 	0 	0 	
0.375 0.00322697 	0 	0 	
0.385 0.0703419 	0 	0 	
0.395 0.716012 	0 	0 	
0.405 3.85031 	0 	0 	
0.415 12.3992 	0 	0 	
0.425 27.6995 	0 	0 	
0.435 48.7179 	0 	0 	
0.445 73.2762 	0 	0 	
0.455 98.4818 	0 	0 	
0.465 119.274 	0 	0 	
0.475 128.947 	0 	0 	
0.485 130.197 	0 	0 	
0.495 130.181 	7.14218e-31 	0 	
0.505 130.154 	0 	0 	
0.515 130.133 	0 	0 	
0.525 130.116 	0 	0 	
0.535 130.1 	0 	0 	
0.545 130.082 	0 	0 	
0.555 130.063 	0 	0 	
0.565 130.022 	0 	0 	
0.575 129.983 	0 	0 	
0.585 124.326 	0 	0 	
0.595 83.2481 	0 	0 	
0.605 47.3708 	0 	0 	
0.615 3.05745 	0 	0 	
0.625 0.0713249 	0 	0 	
0.635 0.000799675 	0 	0 	
0.645 3.10267e-06 	0 	0 	
0.655 2.53797e-09 	0 	0 	
0.665 7.15961e-14 	0 	0 	
0.675 7.67101e-14 	0 	0 	
0.685 -2.55702e-14 	0 	0 	
0.695 1.20179e-13 	0 	0 	
0.705 5.114e-15 	0 	0 	
0.715 -2.30129e-14 	0 	0 	
0.725 -2.55697e-14 	0 	0 	
0.735 2.3013e-14 	0 	0 	
0.745 -3.3241e-14 	0 	0 	
0.755 1.66205e-13 	0 	0 	
0.765 1.7899e-14 	0 	0 	
0.775 -2.50027e-20 	0 	0 	
0.785 -3.0684e-14 	0 	0 	
0.795 1.66205e-13 	0 	0 	
0.805 -1.35521e-13 	0 	0 	
0.815 4.6026e-14 	0 	0 	
0.825 -3.83551e-14 	0 	0 	
0.835 1.27852e-14 	0 	0 	
0.845 2.8127e-14 	0 	0 	
0.855 -1.7899e-14 	0 	0 	
0.865 -1.22736e-13 	0 	0 	
0.875 -1.5342e-13 	0 	0 	
0.885 -3.3241e-14 	0 	0 	
0.895 -1.04837e-13 	0 	0 	
0.905 -5.11401e-15 	0 	0 	
0.915 -1.7899e-14 	0 	0 	
0.925 -6.39252e-14 	0 	0 	
0.935 5.62544e-14 	0 	0 	
0.945 2.55701e-15 	0 	0 	
0.955 5.11405e-15 	0 	0 	
0.965 1.09951e-13 	0 	0 	
0.975 -2.55698e-14 	0 	0 	
0.985 4.8583e-14 	0 	0 	
0.995 -5.3697e-14 	0 	0 	
