0.005 -5.87817e-14 	0 	0 	
0.015 -1.50007e-19 	0 	0 	
0.025 1.46953e-14 	0 	0 	
0.035 6.52608e-30 	0 	0 	
0.045 -1.02868e-13 	0 	0 	
0.055 -1.02868e-13 	0 	0 	
0.065 2.9391e-14 	0 	0 	
0.075 -1.46953e-14 	0 	0 	
0.085 5.87816e-14 	0 	0 	
0.095 -1.46955e-14 	0 	0 	
0.105 1.46953e-14 	0 	0 	
0.115 1.17563e-13 	0 	0 	
0.125 1.76345e-13 	0 	0 	
0.135 1.91041e-13 	0 	0 	
0.145 1.91041e-13 	0 	0 	
0.155 2.05736e-13 	0 	0 	
0.165 2.79213e-13 	0 	0 	
0.175 2.35127e-13 	0 	0 	
0.185 2.35127e-13 	0 	0 	
0.195 4.40861e-14 	0 	0 	
0.205 -4.40863e-14 	0 	0 	
0.215 -5.87815e-14 	0 	0 	
0.225 -5.87817e-14 	0 	0 	
0.235 -7.3477e-14 	0 	0 	
0.245 -1.46954e-13 	0 	0 	
0.255 -8.81725e-14 	0 	0 	
0.265 -7.34768e-14 	0 	0 	
0.275 3.90898e-12 	0 	0 	
0.285 6.61778e-10 	0 	0 	
0.295 5.60097e-08 	0 	0 	
0.305 2.70387e-06 	0 	0 	
0.315 7.89693e-05 	0 	0 	
0.325 0.00145406 	0 	0 	
0.335 0.0173819 	0 	0 	
0.345 0.137862 	0 	0 	
0.355 0.740322 	0 	0 	
0.365 2.77102 	0 	0 	
0.375 7.57825 	0 	0 	
0.385 16.1177 	0 	0 	
0.395 28.4149 	0 	0 	
0.405 43.787 	0 	0 	
0.415 61.2908 	0 	0 	
0.425 79.9062 	0 	0 	
0.435 98.3596 	0 	0 	
0.445 114.595 	0 	0 	
0.455 125.512 	0 	0 	
0.465 129.633 	0 	0 	
0.475 130.194 	0 	0 	
0.485 130.186 	0 	0 	
0.495 130.164 	0 	0 	
0.505 130.147 	0 	0 	
0.515 130.133 	0 	0 	
0.525 130.121 	0 	0 	
0.535 130.111 	0 	0 	
0.545 130.101 	0 	0 	
0.555 130.092 	0 	0 	
0.565 130.083 	0 	0 	
0.575 130.074 	0 	0 	
0.585 130.063 	0 	0 	
0.595 130.047 	0 	0 	
0.605 129.974 	0 	0 	
0.615 129.469 	0 	0 	
0.625 126.369 	0 	0 	
0.635 111.295 	0 	0 	
0.645 62.9861 	0 	0 	
0.655 11.242 	0 	0 	
0.665 0.791323 	0 	0 	
0.675 0.0393036 	0 	0 	
0.685 0.00144076 	0 	0 	
0.695 3.65868e-05 	0 	0 	
0.705 5.99734e-07 	0 	0 	
0.715 5.86476e-09 	0 	0 	
0.725 3.08273e-11 	0 	0 	
0.735 -4.40862e-14 	0 	0 	
0.745 -1.54302e-13 	0 	0 	
0.755 -7.71511e-14 	0 	0 	
0.765 -2.20431e-13 	0 	0 	
0.775 -1.10216e-13 	0 	0 	
0.785 -1.4328e-13 	0 	0 	
0.795 -5.51079e-14 	0 	0 	
0.805 -7.71509e-14 	0 	0 	
0.815 -4.40864e-14 	0 	0 	
0.825 -5.51078e-14 	0 	0 	
0.835 -1.10215e-14 	0 	0 	
0.845 8.81725e-14 	0 	0 	
0.855 -1.10218e-14 	0 	0 	
0.865 5.51078e-14 	0 	0 	
0.875 -4.40863e-14 	0 	0 	
0.885 4.4086e-14 	0 	0 	
0.895 5.51079e-14 	0 	0 	
0.905 7.7151e-14 	0 	0 	
0.915 6.61295e-14 	0 	0 	
0.925 5.51079e-14 	0 	0 	
0.935 1.54302e-13 	0 	0 	
0.945 4.40863e-14 	0 	0 	
0.955 8.81727e-14 	0 	0 	
0.965 4.40863e-14 	0 	0 	
0.975 3.30647e-14 	0 	0 	
0.985 -2.49986e-20 	0 	0 	
0.995 1.10218e-14 	0 	0 	
