0.005 4.84949e-14 	0 	0 	
0.015 5.65771e-14 	0 	0 	
0.025 -1.61649e-14 	0 	0 	
0.035 -1.6165e-14 	0 	0 	
0.045 -3.73266e-20 	0 	0 	
0.055 -1.05072e-13 	0 	0 	
0.065 7.27425e-14 	0 	0 	
0.075 -1.6165e-14 	0 	0 	
0.085 8.08249e-15 	0 	0 	
0.095 8.89075e-14 	0 	0 	
0.105 -4.04124e-14 	0 	0 	
0.115 4.04125e-14 	0 	0 	
0.125 4.04125e-14 	0 	0 	
0.135 1.05072e-13 	0 	0 	
0.145 1.6165e-14 	0 	0 	
0.155 -5.65771e-14 	0 	0 	
0.165 4.84946e-14 	0 	0 	
0.175 -3.23299e-14 	0 	0 	
0.185 -4.84949e-14 	0 	0 	
0.195 4.04124e-14 	0 	0 	
0.205 6.466e-14 	0 	0 	
0.215 4.84945e-14 	0 	0 	
0.225 6.466e-14 	0 	0 	
0.235 8.0825e-15 	0 	0 	
0.245 -1.21237e-13 	0 	0 	
0.255 -1.77815e-13 	0 	0 	
0.265 -7.27424e-14 	0 	0 	
0.275 5.65775e-13 	0 	0 	
0.285 1.87926e-10 	0 	0 	
0.295 2.82847e-08 	0 	0 	
0.305 1.98171e-06 	0 	0 	
0.315 7.60665e-05 	8.52469e-30 	0 	
0.325 0.00166093 	0 	0 	
0.335 0.0220935 	-7.85225e-30 	0 	
0.345 0.183382 	0 	0 	
0.355 0.986557 	-4.16324e-30 	0 	
0.365 3.58364 	1.54113e-29 	0 	
0.375 9.37873 	0 	0 	
0.385 19.0794 	2.13591e-30 	0 	
0.395 32.3836 	0 	0 	
0.405 48.4302 	3.8948e-30 	0 	
0.415 66.2419 	0 	0 	
0.425 84.8079 	-7.27941e-31 	0 	
0.435 102.799 	0 	0 	
0.445 117.961 	-2.27038e-30 	0 	
0.455 127.154 	-3.01639e-30 	0 	
0.465 129.943 	-3.21021e-30 	0 	
0.475 130.196 	0 	0 	
0.485 130.175 	0 	0 	
0.495 130.155 	-1.18445e-30 	0 	
0.505 130.14 	-9.30952e-31 	0 	
0.515 130.127 	0 	0 	
0.525 130.117 	0 	0 	
0.535 130.108 	0 	0 	
0.545 130.099 	0 	0 	
0.555 130.092 	0 	0 	
0.565 130.083 	0 	0 	
0.575 130.075 	0 	0 	
0.585 130.067 	0 	0 	
0.595 130.056 	0 	0 	
0.605 130.031 	0 	0 	
0.615 129.873 	0 	0 	
0.625 128.696 	0 	0 	
0.635 121.58 	0 	0 	
0.645 89.255 	0 	0 	
0.655 23.7444 	0 	0 	
0.665 1.55669 	0 	0 	
0.675 0.0605024 	0 	0 	
0.685 0.0017019 	0 	0 	
0.695 3.06884e-05 	0 	0 	
0.705 3.31786e-07 	0 	0 	
0.715 1.75502e-09 	0 	0 	
0.725 4.26755e-12 	0 	0 	
0.735 7.88042e-14 	0 	0 	
0.745 1.21237e-14 	0 	0 	
0.755 7.27425e-14 	0 	0 	
0.765 3.63712e-14 	0 	0 	
0.775 8.48662e-14 	0 	0 	
0.785 -7.27426e-14 	0 	0 	
0.795 3.03093e-14 	0 	0 	
0.805 2.42475e-14 	0 	0 	
0.815 4.40721e-25 	0 	0 	
0.825 1.21237e-14 	0 	0 	
0.835 9.09281e-14 	0 	0 	
0.845 2.42476e-14 	0 	0 	
0.855 4.2433e-14 	0 	0 	
0.865 3.63713e-14 	0 	0 	
0.875 -6.06188e-14 	0 	0 	
0.885 1.81857e-14 	0 	0 	
0.895 -4.24331e-14 	0 	0 	
0.905 -1.81856e-14 	0 	0 	
0.915 3.63713e-14 	0 	0 	
0.925 -1.09114e-13 	0 	0 	
0.935 -1.29217e-28 	0 	0 	
0.945 -9.699e-14 	0 	0 	
0.955 6.06189e-15 	0 	0 	
0.965 -6.06187e-14 	0 	0 	
0.975 4.84949e-14 	0 	0 	
0.985 -1.81856e-14 	0 	0 	
0.995 -4.2433e-14 	0 	0 	
