0.005 0 	0 	0 	
0.015 0 	0 	0 	
0.025 1.17563e-14 	0 	0 	
0.035 4.40863e-14 	0 	0 	
0.045 5.87817e-14 	0 	0 	
0.055 2.35127e-14 	0 	0 	
0.065 -2.05736e-14 	0 	0 	
0.075 -4.11472e-14 	0 	0 	
0.085 -3.82081e-14 	0 	0 	
0.095 5.87817e-15 	0 	0 	
0.105 4.70254e-14 	0 	0 	
0.115 4.11472e-14 	0 	0 	
0.125 2.35127e-14 	0 	0 	
0.135 -2.64517e-14 	0 	0 	
0.145 -8.52334e-14 	-1.30521e-30 	0 	
0.155 -7.93553e-14 	0 	0 	
0.165 -6.17208e-14 	0 	0 	
0.175 -5.58427e-14 	0 	0 	
0.185 -2.35127e-14 	0 	0 	
0.195 2.35127e-14 	0 	0 	
0.205 4.99645e-14 	0 	0 	
0.215 3.5269e-14 	0 	0 	
0.225 2.05736e-14 	0 	0 	
0.235 2.35127e-14 	2.61042e-30 	0 	
0.245 8.81728e-15 	0 	0 	
0.255 2.49999e-20 	0 	0 	
0.265 2.05736e-14 	0 	0 	
0.275 1.73406e-13 	0 	0 	
0.285 2.28955e-12 	0 	0 	
0.295 2.83739e-11 	0 	0 	
0.305 3.16778e-10 	0 	0 	
0.315 3.19415e-09 	0 	0 	
0.325 2.91711e-08 	0 	0 	
0.335 2.41813e-07 	0 	0 	
0.345 1.82184e-06 	0 	0 	
0.355 1.24819e-05 	0 	0 	
0.365 7.7747e-05 	0 	0 	
0.375 0.000439829 	0 	0 	
0.385 0.00225576 	0 	0 	
0.395 0.0104602 	0 	0 	
0.405 0.0437001 	0 	0 	
0.415 0.163772 	0 	0 	
0.425 0.547996 	0 	0 	
0.435 1.63046 	0 	0 	
0.445 4.30416 	0 	0 	
0.455 10.091 	0 	0 	
0.465 21.1022 	0 	0 	
0.475 39.6023 	0 	0 	
0.485 66.606 	0 	0 	
0.495 97.5335 	0 	0 	
0.505 117.69 	0 	0 	
0.515 115.746 	0 	0 	
0.525 96.4733 	0 	0 	
0.535 68.8943 	0 	0 	
0.545 40.7653 	0 	0 	
0.555 19.6016 	0 	0 	
0.565 7.70583 	0 	0 	
0.575 2.54901 	0 	0 	
0.585 0.733505 	0 	0 	
0.595 0.187796 	0 	0 	
0.605 0.0432781 	0 	0 	
0.615 0.00902922 	0 	0 	
0.625 0.00171084 	0 	0 	
0.635 0.000294975 	0 	0 	
0.645 4.63304e-05 	0 	0 	
0.655 6.63212e-06 	0 	0 	
0.665 8.6508e-07 	0 	0 	
0.675 1.0273e-07 	0 	0 	
0.685 1.10888e-08 	0 	0 	
0.695 1.08543e-09 	0 	0 	
0.705 9.60728e-11 	0 	0 	
0.715 7.67322e-12 	0 	0 	
0.725 5.55488e-13 	0 	0 	
0.735 3.5269e-14 	0 	0 	
0.745 0 	0 	0 	
0.755 0 	0 	0 	
0.765 0 	0 	0 	
0.775 -2.20431e-15 	0 	0 	
0.785 -1.32259e-14 	0 	0 	
0.795 -1.76345e-14 	0 	0 	
0.805 4.99984e-21 	0 	0 	
0.815 1.54302e-14 	-1.95783e-30 	0 	
0.825 1.32259e-14 	0 	0 	
0.835 4.40863e-15 	0 	0 	
0.845 0 	0 	0 	
0.855 0 	0 	0 	
0.865 -8.81725e-15 	0 	0 	
0.875 -1.10216e-14 	0 	0 	
0.885 6.61296e-15 	0 	0 	
0.895 1.10216e-14 	0 	0 	
0.905 5.43285e-26 	0 	0 	
0.915 -1.54302e-14 	0 	0 	
0.925 -2.42475e-14 	0 	0 	
0.935 -2.71409e-25 	0 	0 	
0.945 2.42475e-14 	0 	0 	
0.955 1.54302e-14 	0 	0 	
0.965 2.20432e-15 	0 	0 	
0.975 0 	0 	0 	
0.985 0 	0 	0 	
0.995 0 	0 	0 	
