0.005 4.70254e-14 	0 	0 	
0.015 -2.35127e-14 	0 	0 	
0.025 -7.05381e-14 	0 	0 	
0.035 -4.70254e-14 	0 	0 	
0.045 7.05381e-14 	0 	0 	
0.055 7.0538e-14 	0 	0 	
0.065 2.33947e-24 	0 	0 	
0.075 4.70254e-14 	0 	0 	
0.085 4.70254e-14 	0 	0 	
0.095 2.3513e-14 	0 	0 	
0.105 -4.70254e-14 	0 	0 	
0.115 -9.40507e-14 	0 	0 	
0.125 -5.8513e-25 	0 	0 	
0.135 -1.75583e-24 	0 	0 	
0.145 -7.05381e-14 	0 	0 	
0.155 2.35126e-14 	0 	0 	
0.165 4.70254e-14 	0 	0 	
0.175 7.05381e-14 	0 	0 	
0.185 -4.70256e-14 	0 	0 	
0.195 5.84801e-25 	0 	0 	
0.205 -7.0538e-14 	8.4839e-30 	0 	
0.215 -7.0538e-14 	0 	0 	
0.225 -2.35127e-14 	0 	0 	
0.235 -2.35127e-14 	0 	0 	
0.245 -9.4051e-14 	0 	0 	
0.255 -4.70254e-14 	0 	0 	
0.265 -9.40508e-14 	0 	0 	
0.275 -2.35127e-14 	0 	0 	
0.285 -1.17564e-13 	0 	0 	
0.295 6.11328e-13 	0 	0 	
0.305 9.55556e-11 	0 	0 	
0.315 7.93006e-09 	0 	0 	
0.325 4.02644e-07 	0 	0 	
0.335 1.30761e-05 	0 	0 	
0.345 0.000280135 	0 	0 	
0.355 0.00404494 	0 	0 	
0.365 0.0399408 	0 	0 	
0.375 0.272522 	0 	0 	
0.385 1.30075 	0 	0 	
0.395 4.45019 	0 	0 	
0.405 11.4021 	0 	0 	
0.415 23.1835 	0 	0 	
0.425 39.6344 	0 	0 	
0.435 59.6939 	0 	0 	
0.445 81.7421 	0 	0 	
0.455 103.345 	0 	0 	
0.465 120.423 	0 	0 	
0.475 128.68 	0 	0 	
0.485 130.18 	0 	0 	
0.495 130.205 	0 	0 	
0.505 130.177 	-4.93279e-31 	0 	
0.515 130.153 	1.11385e-30 	0 	
0.525 130.133 	-1.80066e-30 	0 	
0.535 130.115 	-1.01277e-30 	0 	
0.545 130.098 	-1.13375e-30 	0 	
0.555 130.079 	0 	0 	
0.565 130.041 	0 	0 	
0.575 129.825 	2.19894e-30 	0 	
0.585 128.438 	2.37432e-30 	0 	
0.595 121.506 	1.72248e-30 	0 	
0.605 96.4116 	1.28067e-30 	0 	
0.615 44.4056 	0 	0 	
0.625 8.14809 	0 	0 	
0.635 0.811729 	0 	0 	
0.645 0.0586185 	0 	0 	
0.655 0.00312944 	0 	0 	
0.665 0.000119342 	0 	0 	
0.675 3.12685e-06 	0 	0 	
0.685 5.39256e-08 	0 	0 	
0.695 5.81093e-10 	0 	0 	
0.705 3.59745e-12 	0 	0 	
0.715 4.35418e-25 	0 	0 	
0.725 3.5269e-14 	0 	0 	
0.735 -7.05381e-14 	0 	0 	
0.745 -7.05381e-14 	0 	0 	
0.755 5.29035e-14 	-3.18147e-30 	0 	
0.765 2.61253e-24 	0 	0 	
0.775 -1.05807e-13 	0 	0 	
0.785 -3.5269e-14 	0 	0 	
0.795 -5.29035e-14 	-3.30382e-30 	0 	
0.805 1.76345e-14 	-3.30382e-30 	0 	
0.815 -8.81724e-14 	0 	0 	
0.825 -7.05381e-14 	0 	0 	
0.835 -1.30392e-24 	0 	0 	
0.845 1.76345e-14 	0 	0 	
0.855 3.5269e-14 	0 	0 	
0.865 7.0538e-14 	0 	0 	
0.875 7.0538e-14 	0 	0 	
0.885 5.29036e-14 	0 	0 	
0.895 3.5269e-14 	0 	0 	
0.905 3.5269e-14 	0 	0 	
0.915 -9.35172e-30 	0 	0 	
0.925 -6.22177e-40 	0 	0 	
0.935 7.0538e-14 	0 	0 	
0.945 3.5269e-14 	0 	0 	
0.955 -3.5269e-14 	0 	0 	
0.965 -3.5269e-14 	0 	0 	
0.975 -5.29035e-14 	0 	0 	
0.985 -7.0538e-14 	0 	0 	
0.995 5.29036e-14 	0 	0 	
