0.005 -2.35127e-14 	0 	0 	
0.015 -2.35125e-14 	0 	0 	
0.025 -4.70254e-14 	0 	0 	
0.035 2.35127e-14 	0 	0 	
0.045 2.35127e-14 	0 	0 	
0.055 4.70254e-14 	0 	0 	
0.065 -7.0538e-14 	0 	0 	
0.075 4.70253e-14 	0 	0 	
0.085 4.70254e-14 	0 	0 	
0.095 -2.35127e-14 	0 	0 	
0.105 -7.0538e-14 	0 	0 	
0.115 9.40508e-14 	0 	0 	
0.125 4.70253e-14 	0 	0 	
0.135 -2.35127e-14 	0 	0 	
0.145 -2.35127e-14 	0 	0 	
0.155 -2.35127e-14 	0 	0 	
0.165 7.05381e-14 	0 	0 	
0.175 -7.0538e-14 	0 	0 	
0.185 7.0538e-14 	0 	0 	
0.195 7.0538e-14 	0 	0 	
0.205 -7.05381e-14 	8.15761e-30 	0 	
0.215 -4.70254e-14 	0 	0 	
0.225 -9.4051e-14 	0 	0 	
0.235 -3.13252e-29 	0 	0 	
0.245 -1.64589e-13 	0 	0 	
0.255 -4.70254e-14 	0 	0 	
0.265 -1.41076e-13 	0 	0 	
0.275 -9.40508e-14 	0 	0 	
0.285 -1.88102e-13 	0 	0 	
0.295 2.35127e-14 	0 	0 	
0.305 6.18384e-12 	0 	0 	
0.315 7.95056e-10 	0 	0 	
0.325 5.72157e-08 	0 	0 	
0.335 2.51086e-06 	0 	0 	
0.345 7.01132e-05 	0 	0 	
0.355 0.00128298 	0 	0 	
0.365 0.0156955 	0 	0 	
0.375 0.130117 	0 	0 	
0.385 0.739647 	0 	0 	
0.395 2.94041 	0 	0 	
0.405 8.49488 	0 	0 	
0.415 18.8845 	0 	0 	
0.425 34.391 	0 	0 	
0.435 54.1392 	0 	0 	
0.445 76.5341 	0 	0 	
0.455 99.1853 	0 	0 	
0.465 118.038 	0 	0 	
0.475 128.054 	0 	0 	
0.485 130.148 	0 	0 	
0.495 130.209 	0 	0 	
0.505 130.179 	-4.93354e-31 	0 	
0.515 130.154 	1.11512e-30 	0 	
0.525 130.134 	-1.81801e-30 	0 	
0.535 130.114 	-1.03166e-30 	0 	
0.545 130.096 	-1.14559e-30 	0 	
0.555 130.073 	0 	0 	
0.565 130.006 	0 	0 	
0.575 129.553 	2.2001e-30 	0 	
0.585 126.811 	2.04244e-30 	0 	
0.595 114.443 	1.4009e-30 	0 	
0.605 76.7715 	5.77134e-31 	0 	
0.615 23.9813 	0 	0 	
0.625 3.12604 	0 	0 	
0.635 0.259168 	0 	0 	
0.645 0.0157206 	0 	0 	
0.655 0.000683475 	0 	0 	
0.665 2.04524e-05 	0 	0 	
0.675 4.02973e-07 	0 	0 	
0.685 4.96064e-09 	0 	0 	
0.695 3.56217e-11 	0 	0 	
0.705 1.23442e-13 	0 	0 	
0.715 -1.76345e-14 	0 	0 	
0.725 -3.5269e-14 	0 	0 	
0.735 -1.05807e-13 	0 	0 	
0.745 -1.74168e-24 	0 	0 	
0.755 5.29035e-14 	-3.0591e-30 	0 	
0.765 -1.76345e-14 	0 	0 	
0.775 3.5269e-14 	0 	0 	
0.785 -1.76345e-14 	0 	0 	
0.795 -1.76345e-14 	-3.18147e-30 	0 	
0.805 -1.76345e-14 	-3.18147e-30 	0 	
0.815 -7.05381e-14 	0 	0 	
0.825 -1.05807e-13 	0 	0 	
0.835 6.31089e-30 	0 	0 	
0.845 5.29035e-14 	0 	0 	
0.855 1.76345e-14 	0 	0 	
0.865 1.5871e-13 	0 	0 	
0.875 3.52691e-14 	0 	0 	
0.885 -1.76345e-14 	0 	0 	
0.895 1.76344e-14 	0 	0 	
0.905 3.5269e-14 	0 	0 	
0.915 7.05379e-14 	0 	0 	
0.925 -5.29035e-14 	0 	0 	
0.935 1.76345e-14 	0 	0 	
0.945 1.76345e-14 	0 	0 	
0.955 -8.67706e-25 	0 	0 	
0.965 5.29035e-14 	0 	0 	
0.975 -1.76345e-14 	0 	0 	
0.985 -4.33853e-25 	0 	0 	
0.995 1.73543e-24 	0 	0 	
