0.005 -1.05577e-13 	0 	0 	
0.015 2.4881e-14 	0 	0 	
0.025 -4.70724e-14 	0 	0 	
0.035 1.34493e-15 	0 	0 	
0.045 3.4968e-14 	0 	0 	
0.055 -3.63131e-14 	0 	0 	
0.065 -3.96752e-14 	0 	0 	
0.075 1.71478e-13 	0 	0 	
0.085 -1.1432e-14 	0 	0 	
0.095 -3.49683e-14 	0 	0 	
0.105 3.56404e-14 	0 	0 	
0.115 -1.08939e-13 	3.96623e-30 	0 	
0.125 -1.34492e-13 	0 	0 	
0.135 -5.98494e-14 	0 	0 	
0.145 -4.03479e-15 	0 	0 	
0.155 -5.58144e-14 	0 	0 	
0.165 7.19536e-14 	0 	0 	
0.175 -3.02607e-14 	0 	0 	
0.185 -1.21044e-14 	0 	0 	
0.195 -1.00869e-14 	0 	0 	
0.205 1.00869e-13 	0 	0 	
0.215 1.29785e-13 	0 	0 	
0.225 -1.68116e-14 	0 	0 	
0.235 8.74213e-15 	0 	0 	
0.245 -6.25393e-14 	0 	0 	
0.255 -1.39873e-13 	0 	0 	
0.265 5.3797e-15 	0 	0 	
0.275 -3.69854e-14 	0 	0 	
0.285 -1.65426e-13 	0 	0 	
0.295 6.11941e-14 	0 	0 	
0.305 6.7246e-14 	0 	0 	
0.315 6.11941e-14 	0 	0 	
0.325 5.87631e-25 	0 	0 	
0.335 1.17526e-24 	0 	0 	
0.345 3.49678e-14 	0 	0 	
0.355 -6.92634e-14 	0 	0 	
0.365 3.7658e-14 	0 	0 	
0.375 -3.36232e-14 	0 	0 	
0.385 -1.14317e-14 	0 	0 	
0.395 -2.27292e-13 	0 	0 	
0.405 -1.00197e-13 	0 	0 	
0.415 4.62793e-08 	0 	0 	
0.425 0.000552955 	0 	0 	
0.435 0.0812385 	0 	0 	
0.445 1.86421 	0 	0 	
0.455 12.513 	0 	0 	
0.465 39.3663 	0 	0 	
0.475 79.7155 	0 	0 	
0.485 118.241 	0 	0 	
0.495 130.08 	0 	0 	
0.505 130.184 	0 	0 	
0.515 130.135 	0 	0 	
0.525 130.044 	0 	0 	
0.535 128.369 	0 	0 	
0.545 110.911 	0 	0 	
0.555 38.0731 	0 	0 	
0.565 1.12394 	0 	0 	
0.575 0.00438708 	0 	0 	
0.585 2.17738e-07 	0 	0 	
0.595 -1.51304e-15 	0 	0 	
0.605 1.32217e-24 	0 	0 	
0.615 -6.70781e-14 	0 	0 	
0.625 -1.26085e-14 	0 	0 	
0.635 6.75826e-14 	0 	0 	
0.645 1.9165e-14 	0 	0 	
0.655 4.99304e-14 	0 	0 	
0.665 -1.00882e-15 	0 	0 	
0.675 -1.36174e-13 	0 	0 	
0.685 6.90956e-14 	0 	0 	
0.695 5.54796e-15 	0 	0 	
0.705 -1.96695e-14 	0 	0 	
0.715 -9.8852e-14 	0 	0 	
0.725 -7.5652e-15 	0 	0 	
0.735 -2.92521e-14 	0 	0 	
0.745 1.46259e-14 	0 	0 	
0.755 3.98434e-14 	0 	0 	
0.765 -6.55634e-15 	0 	0 	
0.775 -5.29563e-14 	0 	0 	
0.785 2.26954e-14 	0 	0 	
0.795 -6.55651e-15 	0 	0 	
0.805 -3.88349e-14 	0 	0 	
0.815 -8.72523e-14 	0 	0 	
0.825 5.04347e-14 	0 	0 	
0.835 1.91653e-14 	0 	0 	
0.845 5.04346e-14 	0 	0 	
0.855 5.34611e-14 	0 	0 	
0.865 6.20347e-14 	0 	0 	
0.875 -2.52173e-14 	0 	0 	
0.885 6.70784e-14 	0 	0 	
0.895 -7.71655e-14 	0 	0 	
0.905 -8.5739e-15 	0 	0 	
0.915 -6.25391e-14 	0 	0 	
0.925 -4.53915e-14 	0 	0 	
0.935 1.81565e-14 	0 	0 	
0.945 -1.64921e-13 	0 	0 	
0.955 1.17513e-13 	0 	0 	
0.965 -1.51304e-13 	0 	0 	
0.975 5.04335e-15 	0 	0 	
0.985 -3.32867e-14 	0 	0 	
0.995 -6.15301e-14 	0 	0 	
