0.005 1.76345e-13 	0 	0 	
0.015 1.05807e-13 	0 	0 	
0.025 -1.41076e-13 	0 	0 	
0.035 -3.5269e-14 	0 	0 	
0.045 -7.0538e-14 	0 	0 	
0.055 1.05807e-13 	0 	0 	
0.065 1.76345e-13 	0 	0 	
0.075 -5.26382e-24 	0 	0 	
0.085 3.5269e-14 	0 	0 	
0.095 -3.5269e-14 	0 	0 	
0.105 -2.11614e-13 	0 	0 	
0.115 -1.41076e-13 	0 	0 	
0.125 2.46883e-13 	-1.46837e-30 	0 	
0.135 -1.05807e-13 	0 	0 	
0.145 -7.0538e-14 	0 	0 	
0.155 3.5269e-14 	0 	0 	
0.165 3.5269e-14 	0 	0 	
0.175 -7.0538e-14 	-3.18146e-30 	0 	
0.185 3.52691e-14 	-2.93674e-30 	0 	
0.195 -7.0538e-14 	0 	0 	
0.205 2.63012e-24 	0 	0 	
0.215 -1.41076e-13 	0 	0 	
0.225 7.0538e-14 	0 	0 	
0.235 3.5269e-14 	0 	0 	
0.245 -1.05807e-13 	0 	0 	
0.255 7.0538e-14 	-3.42619e-30 	0 	
0.265 -6.57241e-24 	-3.42619e-30 	0 	
0.275 -3.52689e-14 	0 	0 	
0.285 1.76345e-13 	0 	0 	
0.295 -2.62658e-24 	0 	0 	
0.305 -2.62661e-24 	0 	0 	
0.315 3.5269e-14 	0 	0 	
0.325 1.05807e-13 	0 	0 	
0.335 -7.0538e-14 	0 	0 	
0.345 -3.52689e-14 	0 	0 	
0.355 3.5269e-14 	-3.18146e-30 	0 	
0.365 -1.05807e-13 	0 	0 	
0.375 1.76345e-13 	0 	0 	
0.385 -3.52691e-14 	0 	0 	
0.395 -7.05381e-14 	0 	0 	
0.405 -1.41076e-13 	0 	0 	
0.415 3.5269e-14 	3.42619e-30 	0 	
0.425 -2.11614e-13 	3.18146e-30 	0 	
0.435 0.00587099 	-1.59075e-30 	0 	
0.445 0.50504 	2.93998e-30 	0 	
0.455 6.67406 	0 	0 	
0.465 29.2596 	5.30793e-31 	0 	
0.475 69.63 	0 	0 	
0.485 113.644 	2.60117e-31 	0 	
0.495 129.983 	3.69527e-31 	0 	
0.505 130.182 	-1.859e-31 	0 	
0.515 130.125 	0 	0 	
0.525 130 	0 	0 	
0.535 123.34 	0 	0 	
0.545 85.207 	0 	0 	
0.555 9.71039 	0 	0 	
0.565 0.0543795 	0 	0 	
0.575 8.03059e-14 	0 	0 	
0.585 2.11614e-13 	0 	0 	
0.595 5.29037e-14 	0 	0 	
0.605 -7.93553e-14 	0 	0 	
0.615 -1.32259e-13 	0 	0 	
0.625 -7.93552e-14 	0 	0 	
0.635 -2.94436e-24 	0 	0 	
0.645 7.93555e-14 	0 	0 	
0.655 5.29036e-14 	0 	0 	
0.665 2.94427e-24 	0 	0 	
0.675 2.6452e-14 	0 	0 	
0.685 -1.32258e-13 	0 	0 	
0.695 1.95939e-24 	0 	0 	
0.705 1.05807e-13 	0 	0 	
0.715 -1.05807e-13 	0 	0 	
0.725 1.05807e-13 	0 	0 	
0.735 -7.93555e-14 	0 	0 	
0.745 2.11614e-13 	0 	0 	
0.755 -1.05807e-13 	0 	0 	
0.765 -5.29035e-14 	0 	0 	
0.775 -1.05807e-13 	0 	0 	
0.785 -2.34939e-29 	0 	0 	
0.795 7.93555e-14 	0 	0 	
0.805 1.5871e-13 	0 	0 	
0.815 1.58711e-13 	0 	0 	
0.825 -2.64515e-14 	0 	0 	
0.835 1.05807e-13 	0 	0 	
0.845 -1.58711e-13 	0 	0 	
0.855 -7.93555e-14 	0 	0 	
0.865 -1.26218e-29 	0 	0 	
0.875 -5.29037e-14 	0 	0 	
0.885 -7.93553e-14 	0 	0 	
0.895 1.32259e-13 	0 	0 	
0.905 -1.05807e-13 	0 	0 	
0.915 -5.29036e-14 	0 	0 	
0.925 -1.05807e-13 	0 	0 	
0.935 1.5871e-13 	0 	0 	
0.945 -2.64518e-14 	0 	0 	
0.955 -1.58711e-13 	0 	0 	
0.965 -1.05807e-13 	0 	0 	
0.975 -1.05807e-13 	0 	0 	
0.985 7.93555e-14 	0 	0 	
0.995 1.05807e-13 	0 	0 	
