0.005 2.01034e-14 	0 	0 	
0.015 -1.18945e-13 	0 	0 	
0.025 8.37641e-14 	0 	0 	
0.035 -6.70115e-14 	0 	0 	
0.045 3.35056e-15 	0 	0 	
0.055 -2.01031e-14 	0 	0 	
0.065 5.02585e-15 	0 	0 	
0.075 5.86349e-14 	0 	0 	
0.085 -6.7011e-15 	0 	0 	
0.095 -3.35054e-14 	0 	0 	
0.105 -1.00517e-14 	0 	0 	
0.115 3.18303e-14 	0 	0 	
0.125 -3.35055e-14 	0 	0 	
0.135 5.02583e-15 	0 	0 	
0.145 2.17785e-14 	0 	0 	
0.155 -8.87897e-14 	0 	0 	
0.165 -2.22812e-13 	0 	0 	
0.175 -1.67528e-13 	0 	0 	
0.185 3.35054e-14 	0 	0 	
0.195 -1.00517e-14 	0 	0 	
0.205 -2.34539e-14 	0 	0 	
0.215 -6.7011e-14 	0 	0 	
0.225 1.50775e-13 	0 	0 	
0.235 -8.37641e-15 	0 	0 	
0.245 1.34019e-14 	0 	0 	
0.255 1.67541e-15 	0 	0 	
0.265 3.35055e-15 	0 	0 	
0.275 -2.5129e-14 	0 	0 	
0.285 -1.50775e-14 	0 	0 	
0.295 1.80931e-13 	0 	0 	
0.305 9.88411e-14 	0 	0 	
0.315 -3.0155e-14 	0 	0 	
0.325 3.35056e-14 	0 	0 	
0.335 -1.28997e-13 	0 	0 	
0.345 -7.7063e-14 	0 	0 	
0.355 3.35054e-14 	0 	0 	
0.365 1.67527e-15 	0 	0 	
0.375 9.21406e-14 	0 	0 	
0.385 1.10568e-13 	0 	0 	
0.395 7.0362e-14 	0 	0 	
0.405 1.62502e-13 	0 	0 	
0.415 3.3506e-14 	0 	0 	
0.425 1.67526e-14 	0 	0 	
0.435 3.18301e-14 	0 	0 	
0.445 -5.69595e-14 	0 	0 	
0.455 1.08893e-13 	0 	0 	
0.465 -1.491e-13 	0 	0 	
0.475 8.3765e-15 	0 	0 	
0.485 0.612556 	0 	0 	
0.495 52.6264 	0 	0 	
0.505 110.4 	0 	0 	
0.515 2.62402 	0 	0 	
0.525 -6.28226e-14 	0 	0 	
0.535 4.64891e-14 	0 	0 	
0.545 3.2668e-14 	0 	0 	
0.555 -2.26163e-14 	0 	0 	
0.565 -5.1515e-14 	0 	0 	
0.575 5.02585e-14 	0 	0 	
0.585 1.0303e-13 	0 	0 	
0.595 2.88986e-14 	0 	0 	
0.605 6.40794e-14 	0 	0 	
0.615 -5.27712e-14 	0 	0 	
0.625 -1.74996e-19 	0 	0 	
0.635 7.66442e-14 	0 	0 	
0.645 -3.2668e-14 	0 	0 	
0.655 -4.52322e-14 	0 	0 	
0.665 -4.90018e-14 	0 	0 	
0.675 -5.02586e-14 	0 	0 	
0.685 -8.66957e-14 	0 	0 	
0.695 -2.51293e-14 	0 	0 	
0.705 -3.26678e-14 	0 	0 	
0.715 2.76421e-14 	0 	0 	
0.725 4.39759e-14 	0 	0 	
0.735 2.51293e-15 	0 	0 	
0.745 2.51293e-14 	0 	0 	
0.755 6.28223e-15 	0 	0 	
0.765 -7.16183e-14 	0 	0 	
0.775 3.76939e-14 	0 	0 	
0.785 -4.52326e-14 	0 	0 	
0.795 4.27197e-14 	0 	0 	
0.805 -4.52325e-14 	0 	0 	
0.815 0 	0 	0 	
0.825 3.76939e-14 	0 	0 	
0.835 3.76938e-15 	0 	0 	
0.845 0 	0 	0 	
0.855 0 	0 	0 	
0.865 -2.01032e-14 	0 	0 	
0.875 5.65407e-14 	0 	0 	
0.885 -8.79526e-15 	0 	0 	
0.895 -5.02583e-14 	0 	0 	
0.905 1.38209e-14 	0 	0 	
0.915 -2.51292e-14 	0 	0 	
0.925 -7.53875e-14 	0 	0 	
0.935 -2.13599e-14 	0 	0 	
0.945 4.64891e-14 	0 	0 	
0.955 -6.65925e-14 	0 	0 	
0.965 2.13598e-14 	0 	0 	
0.975 -4.39761e-14 	0 	0 	
0.985 2.3873e-14 	0 	0 	
0.995 -4.27197e-14 	0 	0 	
