0.005 3.40934e-14 	0 	0 	
0.015 1.70469e-14 	0 	0 	
0.025 -2.4597e-24 	0 	0 	
0.035 3.40936e-14 	0 	0 	
0.045 1.0228e-14 	0 	0 	
0.055 -9.54615e-14 	0 	0 	
0.065 3.4095e-15 	0 	0 	
0.075 -8.52334e-14 	0 	0 	
0.085 -1.09099e-13 	0 	0 	
0.095 1.19327e-13 	0 	0 	
0.105 1.36374e-14 	0 	0 	
0.115 1.02281e-14 	0 	0 	
0.125 6.81867e-14 	0 	0 	
0.135 -1.73877e-13 	0 	0 	
0.145 -6.13683e-14 	0 	0 	
0.155 -6.81875e-15 	0 	0 	
0.165 9.54612e-14 	0 	0 	
0.175 -5.114e-14 	0 	0 	
0.185 -1.46602e-13 	-2.60227e-30 	0 	
0.195 9.54614e-14 	0 	0 	
0.205 -1.36375e-14 	0 	0 	
0.215 1.15917e-13 	0 	0 	
0.225 -3.40932e-14 	0 	0 	
0.235 1.0228e-14 	0 	0 	
0.245 3.40936e-14 	0 	0 	
0.255 1.02281e-14 	-2.36571e-30 	0 	
0.265 -4.0912e-14 	-1.41942e-30 	0 	
0.275 -3.40935e-14 	0 	0 	
0.285 5.11401e-14 	0 	0 	
0.295 6.8187e-15 	0 	0 	
0.305 -4.77304e-14 	0 	0 	
0.315 -1.39783e-13 	0 	0 	
0.325 -3.40934e-14 	0 	0 	
0.335 -5.11404e-14 	0 	0 	
0.345 -1.09099e-13 	0 	0 	
0.355 -1.1753e-25 	-1.06457e-30 	0 	
0.365 -1.0228e-14 	0 	0 	
0.375 -1.0228e-13 	0 	0 	
0.385 9.20525e-14 	0 	0 	
0.395 3.06841e-14 	0 	0 	
0.405 -2.01151e-13 	0 	0 	
0.415 -1.29555e-13 	0 	0 	
0.425 -6.81868e-14 	0 	0 	
0.435 -7.50056e-14 	0 	0 	
0.445 0.0127362 	0 	0 	
0.455 1.04914 	0 	0 	
0.465 11.957 	0 	0 	
0.475 45.6754 	0 	0 	
0.485 96.9869 	0 	0 	
0.495 128.925 	7.14326e-31 	0 	
0.505 130.186 	0 	0 	
0.515 130.081 	0 	0 	
0.525 127.724 	0 	0 	
0.535 97.3539 	0 	0 	
0.545 15.5395 	0 	0 	
0.555 0.106589 	0 	0 	
0.565 1.0228e-14 	0 	0 	
0.575 2.557e-14 	0 	0 	
0.585 4.8583e-14 	0 	0 	
0.595 2.557e-15 	0 	0 	
0.605 -1.5342e-13 	0 	0 	
0.615 3.57978e-14 	0 	0 	
0.625 1.2785e-14 	0 	0 	
0.635 9.20519e-14 	0 	0 	
0.645 2.557e-14 	0 	0 	
0.655 4.09125e-14 	0 	0 	
0.665 1.0228e-14 	0 	0 	
0.675 -5.10405e-25 	0 	0 	
0.685 2.557e-14 	0 	0 	
0.695 -3.0684e-14 	0 	0 	
0.705 -1.0228e-13 	0 	0 	
0.715 1.27846e-14 	0 	0 	
0.725 1.0228e-13 	0 	0 	
0.735 5.11394e-15 	0 	0 	
0.745 -5.88109e-14 	0 	0 	
0.755 2.0456e-14 	0 	0 	
0.765 -4.60262e-14 	0 	0 	
0.775 -3.8355e-14 	0 	0 	
0.785 2.55704e-15 	0 	0 	
0.795 1.0228e-13 	0 	0 	
0.805 -1.53419e-14 	0 	0 	
0.815 -1.09951e-13 	0 	0 	
0.825 -4.99941e-20 	0 	0 	
0.835 -7.1596e-14 	0 	0 	
0.845 2.8127e-14 	0 	0 	
0.855 8.69379e-14 	0 	0 	
0.865 4.60264e-14 	0 	0 	
0.875 3.83548e-14 	0 	0 	
0.885 -7.671e-15 	0 	0 	
0.895 6.90394e-14 	0 	0 	
0.905 4.8583e-14 	0 	0 	
0.915 7.67099e-15 	0 	0 	
0.925 -3.8355e-14 	0 	0 	
0.935 -4.09121e-14 	0 	0 	
0.945 9.71664e-14 	0 	0 	
0.955 -6.3925e-14 	0 	0 	
0.965 3.3241e-14 	0 	0 	
0.975 -5.11402e-14 	0 	0 	
0.985 -7.41534e-14 	0 	0 	
0.995 5.62544e-14 	0 	0 	
