0.005 0 	0 	0 	
0.015 5.87817e-15 	0 	0 	
0.025 2.64518e-14 	0 	0 	
0.035 5.58426e-14 	0 	0 	
0.045 5.87817e-14 	0 	0 	
0.055 2.05736e-14 	0 	0 	
0.065 -1.76345e-14 	0 	0 	
0.075 -4.11472e-14 	0 	0 	
0.085 -4.40863e-14 	0 	0 	
0.095 2.93907e-15 	0 	0 	
0.105 4.99644e-14 	0 	0 	
0.115 4.40863e-14 	0 	0 	
0.125 2.05736e-14 	0 	0 	
0.135 -3.52691e-14 	0 	0 	
0.145 -1.02868e-13 	-3.26305e-31 	0 	
0.155 -9.69899e-14 	0 	0 	
0.165 -6.46599e-14 	0 	0 	
0.175 -5.58426e-14 	0 	0 	
0.185 -2.93909e-14 	0 	0 	
0.195 2.35127e-14 	0 	0 	
0.205 5.29035e-14 	0 	0 	
0.215 3.5269e-14 	0 	0 	
0.225 2.64518e-14 	0 	0 	
0.235 3.52691e-14 	6.52609e-31 	0 	
0.245 2.05736e-14 	0 	0 	
0.255 3.23299e-14 	0 	0 	
0.265 3.46813e-13 	0 	0 	
0.275 3.96482e-12 	0 	0 	
0.285 4.26726e-11 	0 	0 	
0.295 4.19841e-10 	0 	0 	
0.305 3.78211e-09 	0 	0 	
0.315 3.12533e-08 	0 	0 	
0.325 2.37145e-07 	0 	0 	
0.335 1.65303e-06 	0 	0 	
0.345 1.05843e-05 	0 	0 	
0.355 6.22121e-05 	0 	0 	
0.365 0.000335269 	0 	0 	
0.375 0.00165357 	0 	0 	
0.385 0.00744526 	0 	0 	
0.395 0.0305054 	0 	0 	
0.405 0.113293 	0 	0 	
0.415 0.379647 	0 	0 	
0.425 1.14233 	0 	0 	
0.435 3.07221 	0 	0 	
0.445 7.35855 	0 	0 	
0.455 15.6621 	0 	0 	
0.465 29.5877 	0 	0 	
0.475 49.5527 	0 	0 	
0.485 73.5141 	0 	0 	
0.495 96.4213 	0 	0 	
0.505 111.615 	0 	0 	
0.515 114.068 	0 	0 	
0.525 102.516 	0 	0 	
0.535 79.7028 	0 	0 	
0.545 52.2643 	0 	0 	
0.555 28.3168 	0 	0 	
0.565 12.6418 	0 	0 	
0.575 4.74093 	-4.84146e-31 	0 	
0.585 1.54014 	0 	0 	
0.595 0.44481 	0 	0 	
0.605 0.11598 	0 	0 	
0.615 0.0275181 	0 	0 	
0.625 0.00596661 	0 	0 	
0.635 0.00118538 	0 	0 	
0.645 0.000216168 	0 	0 	
0.655 3.62308e-05 	0 	0 	
0.665 5.58528e-06 	0 	0 	
0.675 7.92166e-07 	0 	0 	
0.685 1.0335e-07 	0 	0 	
0.695 1.23949e-08 	0 	0 	
0.705 1.36489e-09 	0 	0 	
0.715 1.37781e-10 	0 	0 	
0.725 1.27321e-11 	0 	0 	
0.735 1.08232e-12 	0 	0 	
0.745 9.0377e-14 	0 	0 	
0.755 8.81725e-15 	0 	0 	
0.765 0 	0 	0 	
0.775 -4.40862e-15 	0 	0 	
0.785 -2.42474e-14 	0 	0 	
0.795 -3.96776e-14 	0 	0 	
0.805 -1.54302e-14 	0 	0 	
0.815 2.64518e-14 	-4.89455e-31 	0 	
0.825 3.74734e-14 	0 	0 	
0.835 1.76345e-14 	0 	0 	
0.845 2.20432e-15 	0 	0 	
0.855 -1.10216e-14 	0 	0 	
0.865 -2.64518e-14 	0 	0 	
0.875 -1.10216e-14 	0 	0 	
0.885 1.98388e-14 	0 	0 	
0.895 2.20432e-14 	0 	0 	
0.905 2.20433e-15 	0 	0 	
0.915 -1.54302e-14 	0 	0 	
0.925 -2.20432e-14 	0 	0 	
0.935 -1.32259e-14 	0 	0 	
0.945 1.10216e-14 	0 	0 	
0.955 2.64518e-14 	0 	0 	
0.965 1.54302e-14 	0 	0 	
0.975 2.20432e-15 	0 	0 	
0.985 0 	0 	0 	
0.995 0 	0 	0 	
