0.005 1.01542e-13 	0 	0 	
0.015 -3.9003e-14 	0 	0 	
0.025 4.03477e-14 	0 	0 	
0.035 3.63132e-14 	0 	0 	
0.045 -8.94378e-14 	0 	0 	
0.055 -8.27131e-14 	0 	0 	
0.065 -2.75709e-14 	0 	0 	
0.075 -1.17681e-13 	0 	0 	
0.085 1.61394e-14 	0 	0 	
0.095 -1.07592e-14 	0 	0 	
0.105 1.45925e-13 	0 	0 	
0.115 -1.27096e-13 	1.18987e-29 	0 	
0.125 -5.0435e-14 	0 	0 	
0.135 -5.98494e-14 	0 	0 	
0.145 -7.32982e-14 	0 	0 	
0.155 -1.2306e-13 	0 	0 	
0.165 -1.34493e-13 	0 	0 	
0.175 1.21043e-13 	0 	0 	
0.185 -1.83582e-13 	0 	0 	
0.195 2.68996e-15 	0 	0 	
0.205 -3.22782e-14 	0 	0 	
0.215 -3.29507e-14 	0 	0 	
0.225 -9.41448e-14 	0 	0 	
0.235 1.14991e-13 	0 	0 	
0.245 4.70722e-15 	0 	0 	
0.255 -1.59374e-13 	0 	0 	
0.265 2.32013e-11 	0 	0 	
0.275 4.07674e-09 	0 	0 	
0.285 3.23492e-07 	0 	0 	
0.295 1.50424e-05 	0 	0 	
0.305 0.000392293 	0 	0 	
0.315 0.00608825 	0 	0 	
0.325 0.0600075 	0 	0 	
0.335 0.388739 	0 	0 	
0.345 1.67739 	0 	0 	
0.355 5.09894 	0 	0 	
0.365 11.7187 	0 	0 	
0.375 21.7623 	0 	0 	
0.385 34.7277 	0 	0 	
0.395 49.8387 	0 	0 	
0.405 66.3163 	0 	0 	
0.415 83.3853 	0 	0 	
0.425 100.095 	0 	0 	
0.435 114.851 	0 	0 	
0.445 125.142 	0 	0 	
0.455 129.451 	0 	0 	
0.465 130.173 	0 	0 	
0.475 130.182 	0 	0 	
0.485 130.161 	0 	0 	
0.495 130.146 	0 	0 	
0.505 130.133 	0 	0 	
0.515 130.123 	0 	0 	
0.525 130.114 	0 	0 	
0.535 130.106 	0 	0 	
0.545 130.099 	0 	0 	
0.555 130.091 	0 	0 	
0.565 130.083 	0 	0 	
0.575 130.073 	0 	0 	
0.585 130.06 	0 	0 	
0.595 130.044 	0 	0 	
0.605 130.018 	0 	0 	
0.615 129.979 	0 	0 	
0.625 129.921 	0 	0 	
0.635 129.921 	0 	0 	
0.645 109.97 	0 	0 	
0.655 34.4417 	0 	0 	
0.665 47.2452 	0 	0 	
0.675 10.3597 	0 	0 	
0.685 0.464477 	0 	0 	
0.695 0.0154696 	0 	0 	
0.705 0.000361579 	0 	0 	
0.715 5.35557e-06 	0 	0 	
0.725 5.12182e-08 	0 	0 	
0.735 2.31888e-10 	0 	0 	
0.745 2.84956e-13 	0 	0 	
0.755 -1.46262e-14 	0 	0 	
0.765 -1.8661e-14 	0 	0 	
0.775 -1.0087e-14 	0 	0 	
0.785 4.89215e-14 	0 	0 	
0.795 -2.97564e-14 	0 	0 	
0.805 5.44693e-14 	0 	0 	
0.815 -5.29563e-14 	0 	0 	
0.825 4.03476e-14 	0 	0 	
0.835 -6.0522e-15 	0 	0 	
0.845 1.00365e-13 	0 	0 	
0.855 -1.10957e-13 	0 	0 	
0.865 3.9339e-14 	0 	0 	
0.875 1.13478e-13 	0 	0 	
0.885 2.26954e-14 	0 	0 	
0.895 4.43828e-14 	0 	0 	
0.905 -5.85046e-14 	0 	0 	
0.915 8.57398e-15 	0 	0 	
0.925 8.32172e-14 	0 	0 	
0.935 1.61392e-14 	0 	0 	
0.945 7.16174e-14 	0 	0 	
0.955 5.6991e-14 	0 	0 	
0.965 2.52173e-14 	0 	0 	
0.975 6.5565e-14 	0 	0 	
0.985 1.46259e-14 	0 	0 	
0.995 3.5304e-15 	0 	0 	
