0.005 -2.38655e-14 	0 	0 	
0.015 -1.36374e-13 	0 	0 	
0.025 -1.70467e-14 	0 	0 	
0.035 4.43214e-14 	0 	0 	
0.045 8.1824e-14 	0 	0 	
0.055 -6.47777e-14 	0 	0 	
0.065 8.18241e-14 	0 	0 	
0.075 -8.52332e-14 	0 	0 	
0.085 -6.8186e-15 	0 	0 	
0.095 -3.40934e-15 	0 	0 	
0.105 1.70468e-14 	0 	0 	
0.115 4.77307e-14 	0 	0 	
0.125 5.114e-14 	0 	0 	
0.135 -6.47775e-14 	0 	0 	
0.145 -2.04557e-14 	0 	0 	
0.155 9.20524e-14 	0 	0 	
0.165 1.26146e-13 	0 	0 	
0.175 6.8187e-14 	0 	0 	
0.185 2.0797e-13 	-8.75311e-30 	0 	
0.195 1.50011e-13 	0 	0 	
0.205 2.86384e-13 	0 	0 	
0.215 1.97741e-13 	0 	0 	
0.225 1.5342e-13 	0 	0 	
0.235 1.15918e-13 	0 	0 	
0.245 1.19327e-13 	0 	0 	
0.255 8.18239e-14 	-9.22624e-30 	0 	
0.265 -2.72747e-14 	-4.49484e-30 	0 	
0.275 1.70468e-14 	0 	0 	
0.285 1.0228e-13 	0 	0 	
0.295 4.36396e-13 	0 	0 	
0.305 4.02585e-10 	0 	0 	
0.315 1.04226e-07 	0 	0 	
0.325 9.68285e-06 	0 	0 	
0.335 0.000402805 	0 	0 	
0.345 0.00855466 	0 	0 	
0.355 0.102275 	-4.14105e-30 	0 	
0.365 0.718117 	0 	0 	
0.375 3.106 	0 	0 	
0.385 9.03001 	0 	0 	
0.395 19.4876 	0 	0 	
0.405 34.1499 	0 	0 	
0.415 51.9201 	0 	0 	
0.425 71.5492 	0 	0 	
0.435 91.6815 	0 	0 	
0.445 110.293 	0 	0 	
0.455 123.851 	0 	0 	
0.465 129.419 	0 	0 	
0.475 130.187 	0 	0 	
0.485 130.181 	0 	0 	
0.495 130.158 	7.13798e-31 	0 	
0.505 130.14 	0 	0 	
0.515 130.126 	0 	0 	
0.525 130.113 	0 	0 	
0.535 130.1 	0 	0 	
0.545 130.084 	0 	0 	
0.555 130.063 	0 	0 	
0.565 130.029 	0 	0 	
0.575 129.98 	0 	0 	
0.585 129.909 	0 	0 	
0.595 129.627 	0 	0 	
0.605 -9932.36 	0 	0 	
0.615 8468.05 	0 	0 	
0.625 -199132 	0 	0 	
0.635 1482.86 	0 	0 	
0.645 10.6303 	0 	0 	
0.655 0.424395 	0 	0 	
0.665 0.01073 	0 	0 	
0.675 0.000163939 	0 	0 	
0.685 1.25448e-06 	0 	0 	
0.695 3.69713e-09 	0 	0 	
0.705 3.30109e-12 	0 	0 	
0.715 9.97233e-14 	0 	0 	
0.725 7.671e-14 	0 	0 	
0.735 1.0228e-13 	0 	0 	
0.745 -3.32409e-14 	0 	0 	
0.755 7.1596e-14 	0 	0 	
0.765 -2.55701e-15 	0 	0 	
0.775 8.9495e-14 	0 	0 	
0.785 -2.81271e-14 	0 	0 	
0.795 -8.4381e-14 	0 	0 	
0.805 5.88111e-14 	0 	0 	
0.815 8.94951e-14 	0 	0 	
0.825 2.50027e-20 	0 	0 	
0.835 -5.11396e-15 	0 	0 	
0.845 9.4609e-14 	0 	0 	
0.855 -4.3469e-14 	0 	0 	
0.865 3.06839e-14 	0 	0 	
0.875 -3.83551e-14 	0 	0 	
0.885 -7.671e-15 	0 	0 	
0.895 2.07117e-13 	0 	0 	
0.905 -5.62539e-14 	0 	0 	
0.915 -3.0684e-14 	0 	0 	
0.925 -3.1482e-24 	0 	0 	
0.935 -1.53419e-14 	0 	0 	
0.945 1.61091e-13 	0 	0 	
0.955 9.7166e-14 	0 	0 	
0.965 7.9267e-14 	0 	0 	
0.975 5.11402e-14 	0 	0 	
0.985 -4.40719e-25 	0 	0 	
0.995 1.94332e-13 	0 	0 	
