0.005 6.07704e-14 	0 	0 	
0.015 1.20502e-13 	0 	0 	
0.025 1.46954e-13 	0 	0 	
0.035 1.44015e-13 	0 	0 	
0.045 1.35198e-13 	0 	0 	
0.055 1.05807e-13 	0 	0 	
0.065 5.29035e-14 	0 	0 	
0.075 -1.46954e-14 	0 	0 	
0.085 -8.81725e-14 	0 	0 	
0.095 -1.41076e-13 	0 	0 	
0.105 -1.79284e-13 	0 	0 	
0.115 -1.9398e-13 	0 	0 	
0.125 -1.79284e-13 	0 	0 	
0.135 -2.02797e-13 	0 	0 	
0.145 -2.52761e-13 	-3.26305e-31 	0 	
0.155 -2.85091e-13 	0 	0 	
0.165 -3.02726e-13 	0 	0 	
0.175 -2.61579e-13 	0 	0 	
0.185 -1.52833e-13 	0 	0 	
0.195 -4.11472e-14 	0 	0 	
0.205 -2.93907e-15 	0 	0 	
0.215 -8.81728e-15 	0 	0 	
0.225 1.76345e-14 	0 	0 	
0.235 4.40863e-14 	6.52609e-31 	0 	
0.245 6.46598e-14 	0 	0 	
0.255 1.02868e-13 	0 	0 	
0.265 1.26381e-13 	0 	0 	
0.275 1.44015e-13 	0 	0 	
0.285 1.64589e-13 	0 	0 	
0.295 1.38137e-13 	0 	0 	
0.305 8.52334e-14 	0 	0 	
0.315 6.46599e-14 	0 	0 	
0.325 4.70254e-14 	0 	0 	
0.335 -8.81727e-15 	0 	0 	
0.345 -5.29036e-14 	0 	0 	
0.355 1.18297 	0 	0 	
0.365 6.60156 	0 	0 	
0.375 17.736 	0 	0 	
0.385 32.6421 	0 	0 	
0.395 49.069 	0 	0 	
0.405 65.9514 	0 	0 	
0.415 82.5961 	0 	0 	
0.425 98.2538 	0 	0 	
0.435 111.846 	0 	0 	
0.445 122.097 	0 	0 	
0.455 127.89 	0 	0 	
0.465 129.805 	0 	0 	
0.475 130.19 	0 	0 	
0.485 130.368 	0 	0 	
0.495 130.459 	0 	0 	
0.505 130.491 	0 	0 	
0.515 130.388 	0 	0 	
0.525 130.142 	0 	0 	
0.535 129.896 	0 	0 	
0.545 129.824 	0 	0 	
0.555 129.963 	0 	0 	
0.565 130.179 	0 	0 	
0.575 130.269 	-2.66644e-30 	0 	
0.585 130.17 	-1.18508e-30 	0 	
0.595 130.007 	0 	0 	
0.605 129.939 	0 	0 	
0.615 129.918 	0 	0 	
0.625 129.69 	0 	0 	
0.635 128.169 	0 	0 	
0.645 119.361 	0 	0 	
0.655 91.5218 	0 	0 	
0.665 47.0307 	0 	0 	
0.675 12.1021 	0 	0 	
0.685 0.657588 	0 	0 	
0.695 5.95165e-14 	0 	0 	
0.705 2.20432e-14 	0 	0 	
0.715 -1.08863e-25 	0 	0 	
0.725 4.1882e-14 	0 	0 	
0.735 7.7151e-14 	0 	0 	
0.745 7.27424e-14 	0 	0 	
0.755 5.51079e-14 	0 	0 	
0.765 4.1882e-14 	0 	0 	
0.775 4.84949e-14 	0 	0 	
0.785 3.74734e-14 	0 	0 	
0.795 2.2043e-15 	0 	0 	
0.805 -4.40864e-15 	0 	0 	
0.815 6.61294e-15 	-4.89455e-31 	0 	
0.825 1.54302e-14 	0 	0 	
0.835 3.08604e-14 	0 	0 	
0.845 3.96777e-14 	0 	0 	
0.855 2.64518e-14 	0 	0 	
0.865 2.20431e-15 	0 	0 	
0.875 -1.98388e-14 	0 	0 	
0.885 -4.62906e-14 	0 	0 	
0.895 -5.73122e-14 	0 	0 	
0.905 -3.30647e-14 	0 	0 	
0.915 -2.20431e-15 	0 	0 	
0.925 1.10216e-14 	0 	0 	
0.935 2.20431e-14 	0 	0 	
0.945 3.5269e-14 	0 	0 	
0.955 3.5269e-14 	0 	0 	
0.965 3.74733e-14 	0 	0 	
0.975 6.17208e-14 	0 	0 	
0.985 7.27424e-14 	0 	0 	
0.995 4.33735e-14 	0 	0 	
