0.005 -4.84946e-14 	0 	0 	
0.015 1.61651e-14 	0 	0 	
0.025 -2.42475e-14 	0 	0 	
0.035 -8.0825e-14 	0 	0 	
0.045 1.21237e-13 	0 	0 	
0.055 3.23299e-14 	0 	0 	
0.065 4.04125e-14 	0 	0 	
0.075 1.37402e-13 	0 	0 	
0.085 4.04125e-14 	0 	0 	
0.095 1.21238e-13 	0 	0 	
0.105 -8.08249e-15 	0 	0 	
0.115 -1.13155e-13 	0 	0 	
0.125 4.8495e-14 	0 	0 	
0.135 -4.8495e-14 	0 	0 	
0.145 6.466e-14 	0 	0 	
0.155 3.23296e-14 	0 	0 	
0.165 -4.84949e-14 	0 	0 	
0.175 8.08251e-14 	0 	0 	
0.185 -6.466e-14 	0 	0 	
0.195 8.0825e-15 	0 	0 	
0.205 4.04125e-14 	0 	0 	
0.215 3.23296e-14 	0 	0 	
0.225 3.23299e-14 	0 	0 	
0.235 6.46599e-14 	0 	0 	
0.245 -7.27425e-14 	0 	0 	
0.255 -4.04124e-14 	0 	0 	
0.265 1.6165e-14 	0 	0 	
0.275 -1.17525e-24 	0 	0 	
0.285 -3.23299e-14 	0 	0 	
0.295 1.14529e-11 	0 	0 	
0.305 3.55013e-09 	0 	0 	
0.315 4.48513e-07 	7.8517e-30 	0 	
0.325 2.57054e-05 	0 	0 	
0.335 0.000784449 	-7.1787e-30 	0 	
0.345 0.0133367 	0 	0 	
0.355 0.134766 	-3.81534e-30 	0 	
0.365 0.836234 	1.43906e-29 	0 	
0.375 3.35845 	0 	0 	
0.385 9.36534 	6.91518e-31 	0 	
0.395 19.7778 	0 	0 	
0.405 34.2807 	3.47933e-30 	0 	
0.415 51.8489 	0 	0 	
0.425 71.2867 	-1.255e-30 	0 	
0.435 91.2555 	0 	0 	
0.445 109.766 	-1.8939e-30 	0 	
0.455 123.417 	-2.98204e-30 	0 	
0.465 129.286 	-2.86582e-30 	0 	
0.475 130.184 	0 	0 	
0.485 130.185 	0 	0 	
0.495 130.162 	-1.01542e-30 	0 	
0.505 130.144 	-8.46512e-31 	0 	
0.515 130.129 	0 	0 	
0.525 130.118 	0 	0 	
0.535 130.107 	0 	0 	
0.545 130.098 	0 	0 	
0.555 130.088 	0 	0 	
0.565 130.079 	0 	0 	
0.575 130.069 	0 	0 	
0.585 130.056 	0 	0 	
0.595 130.023 	0 	0 	
0.605 129.786 	0 	0 	
0.615 127.99 	0 	0 	
0.625 117.197 	0 	0 	
0.635 73.2341 	0 	0 	
0.645 12.569 	0 	0 	
0.655 0.633753 	0 	0 	
0.665 0.0207444 	0 	0 	
0.675 0.000439957 	0 	0 	
0.685 5.57405e-06 	0 	0 	
0.695 3.41652e-08 	0 	0 	
0.705 8.98187e-11 	0 	0 	
0.715 3.63713e-14 	0 	0 	
0.725 -1.21237e-13 	0 	0 	
0.735 2.01901e-29 	0 	0 	
0.745 9.09281e-14 	0 	0 	
0.755 6.66804e-14 	0 	0 	
0.765 1.09114e-13 	0 	0 	
0.775 6.0619e-15 	0 	0 	
0.785 1.81856e-14 	0 	0 	
0.795 2.42475e-14 	0 	0 	
0.805 3.63714e-14 	0 	0 	
0.815 7.27426e-14 	0 	0 	
0.825 -6.06186e-15 	0 	0 	
0.835 -1.21237e-14 	0 	0 	
0.845 1.21237e-14 	0 	0 	
0.855 2.42474e-14 	0 	0 	
0.865 1.81856e-14 	0 	0 	
0.875 4.8495e-14 	0 	0 	
0.885 6.06186e-15 	0 	0 	
0.895 1.21238e-14 	0 	0 	
0.905 -3.63714e-14 	0 	0 	
0.915 -2.42475e-14 	0 	0 	
0.925 -1.09114e-13 	0 	0 	
0.935 -8.48662e-14 	0 	0 	
0.945 -1.09114e-13 	0 	0 	
0.955 -4.2433e-14 	0 	0 	
0.965 -1.15175e-13 	0 	0 	
0.975 -1.33361e-13 	0 	0 	
0.985 6.06185e-15 	0 	0 	
0.995 -4.8495e-14 	0 	0 	
