0.005 -7.0538e-14 	0 	0 	
0.015 -1.3161e-24 	0 	0 	
0.025 7.0538e-14 	0 	0 	
0.035 -1.76345e-13 	0 	0 	
0.045 3.5269e-14 	0 	0 	
0.055 7.05381e-14 	0 	0 	
0.065 3.5269e-14 	0 	0 	
0.075 7.0538e-14 	0 	0 	
0.085 3.5269e-14 	0 	0 	
0.095 5.26502e-24 	0 	0 	
0.105 7.0538e-14 	0 	0 	
0.115 -1.76345e-13 	0 	0 	
0.125 1.41076e-13 	-3.67092e-30 	0 	
0.135 -3.5269e-13 	0 	0 	
0.145 -3.5269e-14 	0 	0 	
0.155 3.94877e-24 	0 	0 	
0.165 3.5269e-14 	0 	0 	
0.175 -1.41076e-13 	-7.83129e-30 	0 	
0.185 -1.05807e-13 	-7.34184e-30 	0 	
0.195 1.76345e-13 	0 	0 	
0.205 1.05807e-13 	0 	0 	
0.215 -3.5269e-14 	0 	0 	
0.225 -1.41076e-13 	0 	0 	
0.235 -6.5724e-24 	0 	0 	
0.245 -1.41076e-13 	0 	0 	
0.255 -5.2579e-24 	-8.56548e-30 	0 	
0.265 -1.41076e-13 	-8.32074e-30 	0 	
0.275 -7.0538e-14 	0 	0 	
0.285 1.05807e-13 	0 	0 	
0.295 -3.5269e-14 	0 	0 	
0.305 -1.41076e-13 	0 	0 	
0.315 3.5269e-14 	0 	0 	
0.325 3.8796e-13 	0 	0 	
0.335 2.86804e-09 	0 	0 	
0.345 1.22785e-06 	0 	0 	
0.355 0.000132935 	-7.34184e-30 	0 	
0.365 0.00530024 	0 	0 	
0.375 0.093737 	0 	0 	
0.385 0.823918 	0 	0 	
0.395 3.98509 	0 	0 	
0.405 12.0241 	-7.5931e-31 	0 	
0.415 25.9411 	6.06575e-30 	0 	
0.425 44.8124 	2.79277e-31 	0 	
0.435 66.8959 	2.99107e-31 	0 	
0.445 90.1638 	-1.35876e-45 	0 	
0.455 111.568 	3.45459e-31 	0 	
0.465 125.775 	-3.62836e-31 	0 	
0.475 129.954 	0 	0 	
0.485 130.193 	-3.6917e-31 	0 	
0.495 130.158 	5.53901e-31 	0 	
0.505 -8079.07 	-1.17034e-36 	0 	
0.515 -1.58579e+16 	0 	0 	
0.525 -2.41425e+29 	0 	0 	
0.535 -2.56535e+41 	0 	0 	
0.545 2.30129e+42 	0 	0 	
0.555 1.38083e+39 	0 	0 	
0.565 -3.25456e+34 	0 	0 	
0.575 -2.66009e+31 	0 	0 	
0.585 1.57172e+38 	0 	0 	
0.595 5.76312e+35 	0 	0 	
0.605 4.03325e+21 	0 	0 	
0.615 2.01298e+16 	0 	0 	
0.625 5.37521e+10 	0 	0 	
0.635 1871.79 	0 	0 	
0.645 0.00242191 	0 	0 	
0.655 1.46541e-05 	0 	0 	
0.665 2.48374e-08 	0 	0 	
0.675 3.7297e-12 	0 	0 	
0.685 2.6452e-14 	0 	0 	
0.695 7.93553e-14 	0 	0 	
0.705 -7.93555e-14 	0 	0 	
0.715 -1.05807e-13 	0 	0 	
0.725 2.64517e-14 	0 	0 	
0.735 -6.85783e-24 	0 	0 	
0.745 9.79737e-25 	0 	0 	
0.755 9.79696e-25 	0 	0 	
0.765 -5.29035e-14 	0 	0 	
0.775 -7.93555e-14 	0 	0 	
0.785 -2.6452e-14 	0 	0 	
0.795 1.85163e-13 	0 	0 	
0.805 1.32259e-13 	0 	0 	
0.815 2.93383e-24 	0 	0 	
0.825 5.29035e-14 	0 	0 	
0.835 5.29035e-14 	0 	0 	
0.845 2.64518e-14 	0 	0 	
0.855 5.29035e-14 	0 	0 	
0.865 2.64518e-14 	0 	0 	
0.875 5.29035e-14 	0 	0 	
0.885 -4.88967e-24 	0 	0 	
0.895 2.64518e-14 	0 	0 	
0.905 6.8455e-24 	0 	0 	
0.915 -2.64515e-14 	0 	0 	
0.925 -2.64518e-14 	0 	0 	
0.935 -5.29035e-14 	0 	0 	
0.945 -5.29035e-14 	0 	0 	
0.955 -5.29035e-14 	0 	0 	
0.965 -7.9355e-14 	0 	0 	
0.975 -5.29036e-14 	0 	0 	
0.985 -1.32259e-13 	0 	0 	
0.995 -5.29037e-14 	0 	0 	
