0.005 6.53361e-14 	0 	0 	
0.015 4.02069e-14 	0 	0 	
0.025 1.42399e-13 	0 	0 	
0.035 -9.7166e-14 	0 	0 	
0.045 1.1727e-14 	0 	0 	
0.055 3.35054e-14 	0 	0 	
0.065 -1.23971e-13 	0 	0 	
0.075 -5.02581e-14 	0 	0 	
0.085 9.71664e-14 	0 	0 	
0.095 -7.03619e-14 	0 	0 	
0.105 -9.54911e-14 	0 	0 	
0.115 1.50775e-14 	0 	0 	
0.125 -8.3764e-15 	0 	0 	
0.135 3.51813e-14 	0 	0 	
0.145 -2.17785e-14 	0 	0 	
0.155 1.17269e-14 	0 	0 	
0.165 -6.7011e-14 	0 	0 	
0.175 5.02584e-14 	0 	0 	
0.185 6.70088e-15 	0 	0 	
0.195 1.03868e-13 	0 	0 	
0.205 -9.54908e-14 	0 	0 	
0.215 -4.69077e-14 	0 	0 	
0.225 2.51292e-14 	0 	0 	
0.235 6.19851e-14 	0 	0 	
0.245 1.55801e-13 	0 	0 	
0.255 6.36608e-14 	0 	0 	
0.265 1.92657e-13 	0 	0 	
0.275 -9.214e-14 	0 	0 	
0.285 8.3766e-15 	0 	0 	
0.295 -6.19852e-14 	0 	0 	
0.305 -1.70879e-13 	0 	0 	
0.315 -1.22296e-13 	0 	0 	
0.325 1.59152e-13 	0 	0 	
0.335 -1.47425e-13 	0 	0 	
0.345 -8.87896e-14 	0 	0 	
0.355 -4.11338e-25 	0 	0 	
0.365 1.30672e-13 	0 	0 	
0.375 3.35056e-14 	0 	0 	
0.385 3.35087e-15 	0 	0 	
0.395 -3.85313e-14 	0 	0 	
0.405 1.28997e-13 	0 	0 	
0.415 0 	0 	0 	
0.425 8.3764e-15 	0 	0 	
0.435 -5.69593e-14 	0 	0 	
0.445 -7.87381e-14 	0 	0 	
0.455 0.0198255 	0 	0 	
0.465 2.01198 	0 	0 	
0.475 21.1674 	0 	0 	
0.485 71.9634 	0 	0 	
0.495 124.937 	0 	0 	
0.505 130.18 	0 	0 	
0.515 129.26 	0 	0 	
0.525 108.486 	0 	0 	
0.535 23.3794 	0 	0 	
0.545 0.140369 	0 	0 	
0.555 2.51292e-14 	0 	0 	
0.565 -5.15149e-14 	0 	0 	
0.575 7.53876e-14 	0 	0 	
0.585 -2.26163e-14 	0 	0 	
0.595 -1.98307e-25 	0 	0 	
0.605 -1.00515e-14 	0 	0 	
0.615 -5.02585e-15 	0 	0 	
0.625 -4.39761e-14 	0 	0 	
0.635 -7.03617e-14 	0 	0 	
0.645 -5.02583e-14 	0 	0 	
0.655 -5.77972e-14 	0 	0 	
0.665 7.66444e-14 	0 	0 	
0.675 -7.53877e-14 	0 	0 	
0.685 -9.17216e-14 	0 	0 	
0.695 7.91568e-14 	0 	0 	
0.705 -2.88987e-14 	0 	0 	
0.715 7.03616e-14 	0 	0 	
0.725 -1.25646e-13 	0 	0 	
0.735 9.29779e-14 	0 	0 	
0.745 3.08502e-25 	0 	0 	
0.755 4.52327e-14 	0 	0 	
0.765 -2.38728e-14 	0 	0 	
0.775 2.51292e-14 	0 	0 	
0.785 7.53883e-15 	0 	0 	
0.795 -6.40794e-14 	0 	0 	
0.805 -9.67474e-14 	0 	0 	
0.815 -2.51287e-15 	0 	0 	
0.825 -1.88469e-14 	0 	0 	
0.835 -4.27197e-14 	0 	0 	
0.845 -5.02583e-14 	0 	0 	
0.855 2.88987e-14 	0 	0 	
0.865 4.90021e-14 	0 	0 	
0.875 3.14118e-14 	0 	0 	
0.885 -7.53878e-14 	0 	0 	
0.895 2.26162e-14 	0 	0 	
0.905 7.53878e-15 	0 	0 	
0.915 2.26162e-14 	0 	0 	
0.925 -3.14114e-14 	0 	0 	
0.935 -1.25647e-15 	0 	0 	
0.945 -5.15151e-14 	0 	0 	
0.955 -3.14114e-14 	0 	0 	
0.965 -4.52325e-14 	0 	0 	
0.975 6.2825e-15 	0 	0 	
0.985 2.51293e-14 	0 	0 	
0.995 1.32215e-25 	0 	0 	
