0.005 9.88415e-14 	0 	0 	
0.015 -6.41603e-14 	0 	0 	
0.025 -8.67013e-15 	0 	0 	
0.035 -1.04041e-14 	0 	0 	
0.045 5.72242e-14 	0 	0 	
0.055 8.67039e-15 	0 	0 	
0.065 1.71672e-13 	0 	0 	
0.075 -6.93623e-14 	0 	0 	
0.085 5.54902e-14 	1.25138e-29 	0 	
0.095 -2.94793e-14 	0 	0 	
0.105 -1.6647e-13 	0 	0 	
0.115 1.6647e-13 	-6.49754e-30 	0 	
0.125 2.16758e-13 	6.25688e-30 	0 	
0.135 2.94792e-14 	0 	0 	
0.145 3.98833e-14 	0 	0 	
0.155 6.06923e-14 	0 	0 	
0.165 1.38725e-13 	0 	0 	
0.175 4.33516e-14 	0 	0 	
0.185 1.12714e-13 	0 	0 	
0.195 3.46812e-15 	0 	0 	
0.205 -6.76284e-14 	0 	0 	
0.215 -9.88413e-14 	0 	0 	
0.225 -5.20216e-14 	0 	0 	
0.235 -1.73402e-15 	0 	0 	
0.245 2.42769e-14 	0 	0 	
0.255 1.21386e-14 	0 	0 	
0.265 -7.97666e-14 	0 	0 	
0.275 1.30055e-13 	0 	0 	
0.285 -1.38725e-14 	0 	0 	
0.295 -1.24852e-13 	0 	0 	
0.305 -6.06922e-14 	0 	0 	
0.315 -5.02876e-14 	0 	0 	
0.325 -5.20219e-14 	0 	0 	
0.335 -8.3235e-14 	0 	0 	
0.345 2.25428e-14 	0 	0 	
0.355 7.40669e-11 	0 	0 	
0.365 2.4473e-07 	0 	0 	
0.375 6.68717e-05 	0 	0 	
0.385 0.0044834 	0 	0 	
0.395 0.107049 	0 	0 	
0.405 1.10385 	0 	0 	
0.415 5.65076 	0 	0 	
0.425 17.0212 	0 	0 	
0.435 35.9327 	0 	0 	
0.445 60.5037 	0 	0 	
0.455 87.7078 	0 	0 	
0.465 112.758 	0 	0 	
0.475 127.422 	0 	0 	
0.485 130.164 	0 	0 	
0.495 130.187 	0 	0 	
0.505 130.156 	0 	0 	
0.515 130.131 	0 	0 	
0.525 130.106 	0 	0 	
0.535 130.075 	0 	0 	
0.545 130.027 	0 	0 	
0.555 129.945 	0 	0 	
0.565 129.936 	0 	0 	
0.575 118.577 	0 	0 	
0.585 33.1472 	0 	0 	
0.595 83.7276 	0 	0 	
0.605 4.50206 	0 	0 	
0.615 0.0933957 	0 	0 	
0.625 0.00084094 	0 	0 	
0.635 2.12618e-06 	0 	0 	
0.645 4.68913e-10 	0 	0 	
0.655 -2.6011e-15 	0 	0 	
0.665 1.17047e-14 	0 	0 	
0.675 8.45353e-14 	0 	0 	
0.685 1.58667e-13 	0 	0 	
0.695 -2.21095e-14 	0 	0 	
0.705 5.07209e-14 	0 	0 	
0.715 -1.04044e-14 	0 	0 	
0.725 1.23552e-13 	0 	0 	
0.735 -1.30055e-13 	0 	0 	
0.745 -4.29181e-14 	0 	0 	
0.755 -3.25136e-14 	0 	0 	
0.765 -5.85244e-14 	0 	0 	
0.775 7.8033e-14 	0 	0 	
0.785 9.75408e-14 	0 	0 	
0.795 -1.44361e-13 	0 	0 	
0.805 -7.41313e-14 	0 	0 	
0.815 1.82078e-14 	0 	0 	
0.825 -4.55189e-14 	0 	0 	
0.835 5.33223e-14 	0 	0 	
0.845 -7.80325e-14 	0 	0 	
0.855 5.2022e-14 	0 	0 	
0.865 -3.51147e-14 	0 	0 	
0.875 -9.10384e-14 	0 	0 	
0.885 5.85243e-14 	0 	0 	
0.895 1.30053e-15 	0 	0 	
0.905 1.00142e-13 	0 	0 	
0.915 -8.06338e-14 	0 	0 	
0.925 -2.60111e-14 	0 	0 	
0.935 -9.10385e-15 	0 	0 	
0.945 1.17049e-14 	0 	0 	
0.955 5.72239e-14 	0 	0 	
0.965 -1.56063e-14 	0 	0 	
0.975 1.30054e-14 	0 	0 	
0.985 -3.77158e-14 	0 	0 	
0.995 -7.54315e-14 	0 	0 	
