0.005 4.70254e-14 	0 	0 	
0.015 7.0538e-14 	0 	0 	
0.025 -4.70254e-14 	0 	0 	
0.035 4.70256e-14 	0 	0 	
0.045 -2.35127e-14 	0 	0 	
0.055 0 	0 	0 	
0.065 4.70254e-14 	0 	0 	
0.075 4.70254e-14 	0 	0 	
0.085 4.70254e-14 	0 	0 	
0.095 0 	0 	0 	
0.105 -2.35126e-14 	0 	0 	
0.115 0 	0 	0 	
0.125 -2.35127e-14 	0 	0 	
0.135 4.70253e-14 	0 	0 	
0.145 -2.35127e-14 	0 	0 	
0.155 -4.70254e-14 	0 	0 	
0.165 7.0538e-14 	0 	0 	
0.175 2.3513e-14 	0 	0 	
0.185 7.05383e-14 	0 	0 	
0.195 4.70254e-14 	0 	0 	
0.205 5.84477e-25 	3.26303e-31 	0 	
0.215 1.41076e-13 	0 	0 	
0.225 2.35127e-14 	0 	0 	
0.235 0 	0 	0 	
0.245 -4.70253e-14 	0 	0 	
0.255 7.05381e-14 	0 	0 	
0.265 9.40507e-14 	0 	0 	
0.275 1.16843e-24 	0 	0 	
0.285 -2.35126e-14 	0 	0 	
0.295 0 	0 	0 	
0.305 2.35127e-14 	0 	0 	
0.315 2.35127e-14 	0 	0 	
0.325 0 	0 	0 	
0.335 -9.40507e-14 	0 	0 	
0.345 7.05381e-14 	0 	0 	
0.355 -2.35127e-14 	0 	0 	
0.365 1.41076e-13 	0 	0 	
0.375 -2.35127e-14 	0 	0 	
0.385 1.16634e-24 	0 	0 	
0.395 0 	0 	0 	
0.405 -7.0538e-14 	0 	0 	
0.415 -1.16529e-24 	0 	0 	
0.425 4.70256e-14 	0 	0 	
0.435 2.3513e-14 	0 	0 	
0.445 4.70254e-14 	0 	0 	
0.455 -9.40508e-14 	0 	0 	
0.465 -4.70254e-14 	0 	0 	
0.475 -1.41076e-13 	0 	0 	
0.485 -7.0538e-14 	0 	0 	
0.495 21.2941 	0 	0 	
0.505 62.3266 	-3.89206e-31 	0 	
0.515 -1.76345e-14 	2.44729e-31 	0 	
0.525 -5.29035e-14 	-2.44729e-31 	0 	
0.535 0 	-1.22364e-31 	0 	
0.545 -7.0538e-14 	-1.22364e-31 	0 	
0.555 5.29035e-14 	0 	0 	
0.565 -1.76345e-14 	0 	0 	
0.575 -4.67585e-30 	0 	0 	
0.585 -7.0538e-14 	0 	0 	
0.595 -5.29035e-14 	0 	0 	
0.605 7.0538e-14 	0 	0 	
0.615 7.0538e-14 	0 	0 	
0.625 -8.81725e-14 	0 	0 	
0.635 7.0538e-14 	0 	0 	
0.645 -1.74481e-24 	0 	0 	
0.655 1.05807e-13 	0 	0 	
0.665 1.76345e-14 	0 	0 	
0.675 -7.0538e-14 	0 	0 	
0.685 1.76345e-14 	0 	0 	
0.695 -1.05807e-13 	0 	0 	
0.705 -3.5269e-14 	0 	0 	
0.715 3.5269e-14 	0 	0 	
0.725 1.76345e-14 	0 	0 	
0.735 1.76345e-14 	0 	0 	
0.745 5.29035e-14 	0 	0 	
0.755 -5.29035e-14 	-1.22364e-31 	0 	
0.765 1.76345e-14 	0 	0 	
0.775 1.30626e-24 	0 	0 	
0.785 5.29035e-14 	0 	0 	
0.795 7.0538e-14 	-1.22364e-31 	0 	
0.805 3.48335e-24 	-1.22364e-31 	0 	
0.815 -1.76345e-14 	0 	0 	
0.825 -7.0538e-14 	0 	0 	
0.835 1.76345e-14 	0 	0 	
0.845 -7.0538e-14 	0 	0 	
0.855 -3.5269e-14 	0 	0 	
0.865 1.5871e-13 	0 	0 	
0.875 2.60782e-24 	0 	0 	
0.885 -5.29035e-14 	0 	0 	
0.895 5.29035e-14 	0 	0 	
0.905 -1.76345e-14 	0 	0 	
0.915 8.81725e-14 	0 	0 	
0.925 7.0538e-14 	0 	0 	
0.935 1.05807e-13 	0 	0 	
0.945 3.52691e-14 	0 	0 	
0.955 1.23441e-13 	0 	0 	
0.965 1.76345e-14 	0 	0 	
0.975 -1.76345e-14 	0 	0 	
0.985 -4.33828e-25 	0 	0 	
0.995 3.52691e-14 	0 	0 	
