0.005 2.35127e-14 	0 	0 	
0.015 1.17563e-13 	0 	0 	
0.025 2.3513e-14 	0 	0 	
0.035 2.35126e-14 	0 	0 	
0.045 1.17564e-13 	0 	0 	
0.055 1.16974e-24 	0 	0 	
0.065 7.05381e-14 	0 	0 	
0.075 1.17564e-13 	0 	0 	
0.085 4.70253e-14 	0 	0 	
0.095 1.88101e-13 	0 	0 	
0.105 4.70253e-14 	0 	0 	
0.115 -2.35127e-14 	0 	0 	
0.125 2.35127e-14 	0 	0 	
0.135 7.0538e-14 	0 	0 	
0.145 2.35127e-14 	0 	0 	
0.155 -7.05381e-14 	0 	0 	
0.165 2.3513e-14 	0 	0 	
0.175 2.35126e-14 	0 	0 	
0.185 2.35127e-14 	0 	0 	
0.195 -7.05381e-14 	0 	0 	
0.205 -2.35127e-14 	1.04417e-29 	0 	
0.215 -5.8447e-25 	0 	0 	
0.225 -1.41076e-13 	0 	0 	
0.235 -9.40508e-14 	0 	0 	
0.245 -1.41076e-13 	0 	0 	
0.255 -2.3513e-14 	0 	0 	
0.265 2.79801e-12 	0 	0 	
0.275 2.04937e-10 	0 	0 	
0.285 9.77278e-09 	0 	0 	
0.295 3.2366e-07 	0 	0 	
0.305 7.60503e-06 	0 	0 	
0.315 0.000128755 	0 	0 	
0.325 0.00158833 	0 	0 	
0.335 0.0143876 	0 	0 	
0.345 0.0962066 	0 	0 	
0.355 0.477348 	0 	0 	
0.365 1.77535 	0 	0 	
0.375 5.05842 	0 	0 	
0.385 11.4462 	0 	0 	
0.395 21.509 	0 	0 	
0.405 35.0663 	0 	0 	
0.415 51.4238 	0 	0 	
0.425 69.6405 	0 	0 	
0.435 88.5472 	0 	0 	
0.445 106.431 	0 	0 	
0.455 120.561 	0 	0 	
0.465 128.129 	0 	0 	
0.475 130.074 	0 	0 	
0.485 130.21 	0 	0 	
0.495 130.186 	0 	0 	
0.505 130.165 	-4.92919e-31 	0 	
0.515 130.147 	8.63607e-31 	0 	
0.525 130.132 	-1.74508e-30 	0 	
0.535 130.119 	-1.05698e-30 	0 	
0.545 130.106 	-1.18758e-30 	0 	
0.555 130.094 	0 	0 	
0.565 130.082 	0 	0 	
0.575 130.068 	2.8739e-30 	0 	
0.585 130.041 	2.70475e-30 	0 	
0.595 129.918 	3.04257e-30 	0 	
0.605 129.2 	2.8773e-30 	0 	
0.615 125.665 	-2.3882e-30 	0 	
0.625 111.844 	0 	0 	
0.635 73.5903 	0 	0 	
0.645 23.3504 	0 	0 	
0.655 3.38686 	0 	0 	
0.665 0.338209 	0 	0 	
0.675 0.0268612 	0 	0 	
0.685 0.00168462 	0 	0 	
0.695 8.12403e-05 	0 	0 	
0.705 2.93482e-06 	0 	0 	
0.715 7.73848e-08 	0 	0 	
0.725 1.44797e-09 	0 	0 	
0.735 1.85515e-11 	0 	0 	
0.745 1.23442e-13 	0 	0 	
0.755 -1.76346e-14 	-3.91565e-30 	0 	
0.765 3.52691e-14 	0 	0 	
0.775 -1.05807e-13 	0 	0 	
0.785 -1.76345e-14 	0 	0 	
0.795 -7.0538e-14 	-4.28274e-30 	0 	
0.805 -5.29036e-14 	-4.28274e-30 	0 	
0.815 -4.34661e-25 	0 	0 	
0.825 -1.76345e-14 	0 	0 	
0.835 -3.5269e-14 	0 	0 	
0.845 3.5269e-14 	0 	0 	
0.855 5.29035e-14 	0 	0 	
0.865 1.41076e-13 	0 	0 	
0.875 5.29035e-14 	0 	0 	
0.885 7.05381e-14 	0 	0 	
0.895 1.76345e-14 	0 	0 	
0.905 7.0538e-14 	0 	0 	
0.915 -1.76345e-14 	0 	0 	
0.925 5.29035e-14 	0 	0 	
0.935 1.76345e-14 	0 	0 	
0.945 1.76344e-14 	0 	0 	
0.955 1.76345e-14 	0 	0 	
0.965 -8.81725e-14 	0 	0 	
0.975 -1.76346e-14 	0 	0 	
0.985 -5.29035e-14 	0 	0 	
0.995 5.29035e-14 	0 	0 	
