0.005 7.05383e-14 	0 	0 	
0.015 7.05381e-14 	0 	0 	
0.025 1.75479e-24 	0 	0 	
0.035 -1.41076e-13 	0 	0 	
0.045 4.70254e-14 	0 	0 	
0.055 2.33947e-24 	0 	0 	
0.065 1.17564e-13 	0 	0 	
0.075 0 	0 	0 	
0.085 9.4051e-14 	0 	0 	
0.095 2.35127e-14 	0 	0 	
0.105 9.4051e-14 	0 	0 	
0.115 -4.70256e-14 	0 	0 	
0.125 -1.17564e-13 	0 	0 	
0.135 -1.17051e-24 	0 	0 	
0.145 -4.70255e-14 	0 	0 	
0.155 -2.35127e-14 	0 	0 	
0.165 -2.35127e-14 	0 	0 	
0.175 4.1767e-29 	0 	0 	
0.185 5.84748e-25 	0 	0 	
0.195 4.70255e-14 	0 	0 	
0.205 -1.17564e-13 	9.46283e-30 	0 	
0.215 -2.35127e-14 	0 	0 	
0.225 -9.40508e-14 	0 	0 	
0.235 -1.17564e-13 	0 	0 	
0.245 -4.70256e-14 	0 	0 	
0.255 -2.35127e-14 	0 	0 	
0.265 -1.88101e-13 	0 	0 	
0.275 7.05381e-14 	0 	0 	
0.285 1.67645e-11 	0 	0 	
0.295 1.27622e-09 	0 	0 	
0.305 6.25763e-08 	0 	0 	
0.315 2.05422e-06 	0 	0 	
0.325 4.62957e-05 	0 	0 	
0.335 0.000729369 	0 	0 	
0.345 0.00813512 	0 	0 	
0.355 0.0647904 	0 	0 	
0.365 0.371017 	0 	0 	
0.375 1.54413 	0 	0 	
0.385 4.77887 	0 	0 	
0.395 11.4419 	0 	0 	
0.405 22.2928 	0 	0 	
0.415 37.1551 	0 	0 	
0.425 55.1823 	0 	0 	
0.435 75.1677 	0 	0 	
0.445 95.4792 	0 	0 	
0.455 113.508 	0 	0 	
0.465 125.452 	0 	0 	
0.475 129.712 	0 	0 	
0.485 130.212 	0 	0 	
0.495 130.196 	0 	0 	
0.505 130.17 	-4.93081e-31 	0 	
0.515 130.15 	8.64513e-31 	0 	
0.525 130.133 	-1.76455e-30 	0 	
0.535 130.117 	-9.62578e-31 	0 	
0.545 130.103 	-1.08969e-30 	0 	
0.555 130.089 	0 	0 	
0.565 130.073 	0 	0 	
0.575 130.041 	2.53637e-30 	0 	
0.585 129.877 	2.36717e-30 	0 	
0.595 128.881 	2.71039e-30 	0 	
0.605 123.933 	2.2266e-30 	0 	
0.615 105.197 	-1.4325e-30 	0 	
0.625 59.3373 	0 	0 	
0.635 14.4044 	0 	0 	
0.645 1.73016 	0 	0 	
0.655 0.14946 	0 	0 	
0.665 0.00998647 	0 	0 	
0.675 0.000504546 	0 	0 	
0.685 1.86808e-05 	0 	0 	
0.695 4.91102e-07 	0 	0 	
0.705 8.85749e-09 	0 	0 	
0.715 1.05172e-10 	0 	0 	
0.725 7.75919e-13 	0 	0 	
0.735 -8.81725e-14 	0 	0 	
0.745 -1.05807e-13 	0 	0 	
0.755 -1.76345e-14 	-3.54856e-30 	0 	
0.765 1.74168e-24 	0 	0 	
0.775 -8.7084e-25 	0 	0 	
0.785 -3.04794e-24 	0 	0 	
0.795 -5.29035e-14 	-3.91565e-30 	0 	
0.805 -1.76346e-14 	-3.79329e-30 	0 	
0.815 -1.76346e-14 	0 	0 	
0.825 -3.52689e-14 	0 	0 	
0.835 3.15544e-30 	0 	0 	
0.845 1.76345e-14 	0 	0 	
0.855 8.81725e-14 	0 	0 	
0.865 1.23442e-13 	0 	0 	
0.875 3.5269e-14 	0 	0 	
0.885 8.81725e-14 	0 	0 	
0.895 3.5269e-14 	0 	0 	
0.905 3.5269e-14 	0 	0 	
0.915 8.81725e-14 	0 	0 	
0.925 1.30391e-24 	0 	0 	
0.935 1.30391e-24 	0 	0 	
0.945 -3.5269e-14 	0 	0 	
0.955 8.81725e-14 	0 	0 	
0.965 1.76345e-14 	0 	0 	
0.975 1.30157e-24 	0 	0 	
0.985 -1.76345e-14 	0 	0 	
0.995 1.76345e-14 	0 	0 	
