0.005 1038.17 	0 	0 	
0.015 17.8627 	0 	0 	
0.025 18.6481 	0 	0 	
0.035 663.512 	0 	0 	
0.045 2.32475 	0 	0 	
0.055 127.98 	0 	0 	
0.065 -103.141 	0 	0 	
0.075 -125.988 	0 	0 	
0.085 -104.909 	0 	0 	
0.095 -180.384 	0 	0 	
0.105 147.004 	0 	0 	
0.115 113.123 	0 	0 	
0.125 58.131 	0 	0 	
0.135 36.3845 	0 	0 	
0.145 -23.57 	0 	0 	
0.155 -130.403 	0 	0 	
0.165 -90.8985 	0 	0 	
0.175 1822.89 	0 	0 	
0.185 61.1951 	0 	0 	
0.195 -290.97 	0 	0 	
0.205 131.335 	0 	0 	
0.215 -611.784 	0 	0 	
0.225 376.717 	0 	0 	
0.235 18.324 	0 	0 	
0.245 -118.274 	0 	0 	
0.255 -164.411 	0 	0 	
0.265 -78.5355 	0 	0 	
0.275 296.816 	0 	0 	
0.285 -32.3022 	0 	0 	
0.295 80.6495 	0 	0 	
0.305 -92.0885 	0 	0 	
0.315 151.172 	0 	0 	
0.325 93.153 	0 	0 	
0.335 -50.235 	0 	0 	
0.345 350.116 	0 	0 	
0.355 1656.15 	0 	0 	
0.365 -5166.51 	0 	0 	
0.375 3.6859 	0 	0 	
0.385 58.0135 	0 	0 	
0.395 644.311 	0 	0 	
0.405 71.423 	0 	0 	
0.415 89.6222 	0 	0 	
0.425 -4.548e+13 	0 	0 	
0.435 -1.07865e+27 	0 	0 	
0.445 -1.88253e+33 	0 	0 	
0.455 -4.45606e+39 	0 	0 	
0.465 -8.75092e+48 	0 	0 	
0.475 -9.35357e+61 	0 	0 	
0.485 -6.38772e+70 	0 	0 	
0.495 -5.36553e+74 	0 	0 	
0.505 -8.72736e+78 	0 	0 	
0.515 3.21131e+80 	0 	0 	
0.525 3.92179e+69 	0 	0 	
0.535 4.53463e+61 	0 	0 	
0.545 2.11726e+49 	0 	0 	
0.555 1.60656e+38 	0 	0 	
0.565 2.44729e+27 	0 	0 	
0.575 1.1714e+15 	0 	0 	
0.585 -2696.06 	0 	0 	
0.595 24.4576 	0 	0 	
0.605 -104.541 	0 	0 	
0.615 -21.7664 	0 	0 	
0.625 -35.3406 	0 	0 	
0.635 -347.268 	0 	0 	
0.645 2703.34 	0 	0 	
0.655 97.4945 	0 	0 	
0.665 16.2115 	0 	0 	
0.675 -59.7711 	0 	0 	
0.685 34.8216 	0 	0 	
0.695 -111.572 	0 	0 	
0.705 9.29917 	0 	0 	
0.715 -43.2315 	0 	0 	
0.725 -431.537 	0 	0 	
0.735 43.1947 	0 	0 	
0.745 140.483 	0 	0 	
0.755 51.603 	0 	0 	
0.765 -43.7755 	0 	0 	
0.775 -720.388 	0 	0 	
0.785 -57.888 	0 	0 	
0.795 -70.4148 	0 	0 	
0.805 66.0793 	0 	0 	
0.815 5.498 	0 	0 	
0.825 -606.171 	0 	0 	
0.835 -141.344 	0 	0 	
0.845 -430.663 	0 	0 	
0.855 419.197 	0 	0 	
0.865 -156.912 	0 	0 	
0.875 20.0415 	0 	0 	
0.885 4267.07 	0 	0 	
0.895 18.1465 	0 	0 	
0.905 170.631 	0 	0 	
0.915 2108.51 	0 	0 	
0.925 194.13 	0 	0 	
0.935 -223.131 	0 	0 	
0.945 775.588 	0 	0 	
0.955 -384.064 	0 	0 	
0.965 -57.7322 	0 	0 	
0.975 -137.728 	0 	0 	
0.985 -6.3855 	0 	0 	
0.995 1137.01 	0 	0 	
