0.005 3.38214e-14 	0 	0 	
0.015 6.17208e-14 	0 	0 	
0.025 9.11116e-14 	0 	0 	
0.035 9.11115e-14 	0 	0 	
0.045 3.23298e-14 	0 	0 	
0.055 -2.93908e-14 	0 	0 	
0.065 -3.5269e-14 	0 	0 	
0.075 -2.93908e-14 	0 	0 	
0.085 -2.93909e-14 	0 	0 	
0.095 5.87815e-15 	0 	0 	
0.105 4.11472e-14 	0 	0 	
0.115 3.5269e-14 	0 	0 	
0.125 -2.49997e-20 	0 	0 	
0.135 -6.17208e-14 	0 	0 	
0.145 -1.26381e-13 	-3.26305e-31 	0 	
0.155 -1.49894e-13 	0 	0 	
0.165 -1.2932e-13 	0 	0 	
0.175 -9.11118e-14 	0 	0 	
0.185 -3.82082e-14 	0 	0 	
0.195 2.93908e-14 	0 	0 	
0.205 6.46599e-14 	0 	0 	
0.215 5.58426e-14 	0 	0 	
0.225 6.46598e-14 	0 	0 	
0.235 7.34771e-14 	6.52609e-31 	0 	
0.245 4.11472e-14 	0 	0 	
0.255 5.87815e-15 	0 	0 	
0.265 -8.81727e-15 	0 	0 	
0.275 -5.87818e-15 	0 	0 	
0.285 0 	0 	0 	
0.295 5.87817e-15 	0 	0 	
0.305 3.23299e-14 	0 	0 	
0.315 6.17208e-14 	0 	0 	
0.325 5.87817e-14 	0 	0 	
0.335 2.35127e-14 	0 	0 	
0.345 -2.64518e-14 	0 	0 	
0.355 -5.58426e-14 	0 	0 	
0.365 -5.29036e-14 	0 	0 	
0.375 -4.40863e-14 	0 	0 	
0.385 -3.82081e-14 	0 	0 	
0.395 -4.11472e-14 	0 	0 	
0.405 -2.93909e-14 	0 	0 	
0.415 2.05736e-14 	0 	0 	
0.425 4.70254e-14 	0 	0 	
0.435 0.538315 	0 	0 	
0.445 6.62958 	0 	0 	
0.455 25.1796 	0 	0 	
0.465 54.6137 	0 	0 	
0.475 86.4763 	0 	0 	
0.485 111.533 	0 	0 	
0.495 125.194 	0 	0 	
0.505 131.048 	0 	0 	
0.515 133.31 	0 	0 	
0.525 133.108 	0 	0 	
0.535 128.314 	0 	0 	
0.545 108.272 	0 	0 	
0.555 65.9851 	0 	0 	
0.565 22.672 	0 	0 	
0.575 2.8782 	-2.44729e-31 	0 	
0.585 1.10216e-14 	0 	0 	
0.595 4.40864e-15 	0 	0 	
0.605 -2.64518e-14 	0 	0 	
0.615 -6.39251e-14 	0 	0 	
0.625 -7.27424e-14 	0 	0 	
0.635 -5.29036e-14 	0 	0 	
0.645 -1.76345e-14 	0 	0 	
0.655 4.40865e-15 	0 	0 	
0.665 -1.98388e-14 	0 	0 	
0.675 -3.08604e-14 	0 	0 	
0.685 1.76345e-14 	0 	0 	
0.695 5.73122e-14 	0 	0 	
0.705 4.8495e-14 	0 	0 	
0.715 3.74733e-14 	0 	0 	
0.725 5.06992e-14 	0 	0 	
0.735 4.84949e-14 	0 	0 	
0.745 1.98388e-14 	0 	0 	
0.755 -2.20431e-15 	0 	0 	
0.765 -2.20431e-14 	0 	0 	
0.775 -3.5269e-14 	0 	0 	
0.785 -2.64518e-14 	0 	0 	
0.795 -2.42474e-14 	0 	0 	
0.805 -2.64518e-14 	0 	0 	
0.815 -1.32259e-14 	-4.89455e-31 	0 	
0.825 2.20432e-15 	0 	0 	
0.835 1.54302e-14 	0 	0 	
0.845 1.76345e-14 	0 	0 	
0.855 1.32259e-14 	0 	0 	
0.865 1.10216e-14 	0 	0 	
0.875 1.10216e-14 	0 	0 	
0.885 2.64518e-14 	0 	0 	
0.895 3.52691e-14 	0 	0 	
0.905 1.32259e-14 	0 	0 	
0.915 -1.76345e-14 	0 	0 	
0.925 -2.64518e-14 	0 	0 	
0.935 -1.32259e-14 	0 	0 	
0.945 8.81727e-15 	0 	0 	
0.955 2.86561e-14 	0 	0 	
0.965 2.20432e-14 	0 	0 	
0.975 4.40863e-15 	0 	0 	
0.985 0 	0 	0 	
0.995 0 	0 	0 	
