0.005 -1.392e-13 	0 	0 	
0.015 -6.59015e-14 	0 	0 	
0.025 -1.34494e-14 	0 	0 	
0.035 3.36235e-14 	0 	0 	
0.045 7.39704e-15 	0 	0 	
0.055 -7.26259e-14 	0 	0 	
0.065 1.21043e-14 	0 	0 	
0.075 1.17681e-13 	0 	0 	
0.085 -5.11072e-14 	0 	0 	
0.095 -1.00872e-14 	0 	0 	
0.105 2.95886e-14 	0 	0 	
0.115 -9.011e-14 	9.33229e-30 	0 	
0.125 2.39307e-24 	0 	0 	
0.135 -4.84175e-14 	0 	0 	
0.145 -1.06921e-13 	0 	0 	
0.155 2.08466e-14 	0 	0 	
0.165 2.89158e-14 	0 	0 	
0.175 3.36234e-14 	0 	0 	
0.185 -1.62064e-13 	0 	0 	
0.195 -9.54896e-14 	0 	0 	
0.205 -1.02215e-13 	0 	0 	
0.215 -6.79188e-14 	0 	0 	
0.225 -1.14319e-13 	0 	0 	
0.235 -3.3623e-14 	0 	0 	
0.245 -1.47942e-14 	0 	0 	
0.255 9.41449e-15 	0 	0 	
0.265 1.07597e-14 	0 	0 	
0.275 8.40582e-14 	0 	0 	
0.285 -1.99049e-13 	0 	0 	
0.295 3.36232e-14 	0 	0 	
0.305 8.95722e-13 	0 	0 	
0.315 8.96741e-10 	0 	0 	
0.325 2.12776e-07 	0 	0 	
0.335 2.00489e-05 	0 	0 	
0.345 0.000805208 	0 	0 	
0.355 0.0160066 	0 	0 	
0.365 0.178871 	0 	0 	
0.375 1.14649 	0 	0 	
0.385 4.52708 	0 	0 	
0.395 12.1871 	0 	0 	
0.405 24.8148 	0 	0 	
0.415 41.6401 	0 	0 	
0.425 61.3414 	0 	0 	
0.435 82.4554 	0 	0 	
0.445 103.051 	0 	0 	
0.455 119.806 	0 	0 	
0.465 128.466 	0 	0 	
0.475 130.146 	0 	0 	
0.485 130.189 	0 	0 	
0.495 130.164 	0 	0 	
0.505 130.145 	0 	0 	
0.515 130.13 	0 	0 	
0.525 130.116 	0 	0 	
0.535 130.105 	0 	0 	
0.545 130.095 	0 	0 	
0.555 130.084 	0 	0 	
0.565 130.074 	0 	0 	
0.575 130.061 	0 	0 	
0.585 130.037 	0 	0 	
0.595 129.907 	0 	0 	
0.605 130.334 	0 	0 	
0.615 125.274 	0 	0 	
0.625 83.0821 	0 	0 	
0.635 17.1887 	0 	0 	
0.645 0.757601 	0 	0 	
0.655 0.0205415 	0 	0 	
0.665 0.000323803 	0 	0 	
0.675 2.43519e-06 	0 	0 	
0.685 7.92741e-09 	0 	0 	
0.695 6.67704e-12 	0 	0 	
0.705 1.76521e-14 	0 	0 	
0.715 -1.22052e-13 	0 	0 	
0.725 -1.51304e-14 	0 	0 	
0.735 -5.04347e-14 	0 	0 	
0.745 -5.09391e-14 	0 	0 	
0.755 -6.50606e-14 	0 	0 	
0.765 -5.29563e-14 	0 	0 	
0.775 -2.5219e-15 	0 	0 	
0.785 -2.57218e-14 	0 	0 	
0.795 3.27825e-14 	0 	0 	
0.805 -1.51303e-14 	0 	0 	
0.815 3.42954e-14 	0 	0 	
0.825 -6.55652e-14 	0 	0 	
0.835 -3.12695e-14 	0 	0 	
0.845 1.10452e-13 	0 	0 	
0.855 -1.51304e-15 	0 	0 	
0.865 8.57403e-15 	0 	0 	
0.875 1.38695e-13 	0 	0 	
0.885 7.86781e-14 	0 	0 	
0.895 -1.32217e-24 	0 	0 	
0.905 -1.76523e-14 	0 	0 	
0.915 -4.40734e-25 	0 	0 	
0.925 2.01735e-14 	0 	0 	
0.935 6.65736e-14 	0 	0 	
0.945 -2.9252e-14 	0 	0 	
0.955 -5.69916e-14 	0 	0 	
0.965 -2.37041e-14 	0 	0 	
0.975 3.78261e-14 	0 	0 	
0.985 -5.8504e-14 	0 	0 	
0.995 -3.6313e-14 	0 	0 	
