0.005 1.05807e-13 	0 	0 	
0.015 2.46883e-13 	0 	0 	
0.025 -7.0538e-14 	0 	0 	
0.035 -3.5269e-14 	0 	0 	
0.045 2.46883e-13 	0 	0 	
0.055 -3.52691e-14 	0 	0 	
0.065 1.76345e-13 	0 	0 	
0.075 -1.76345e-13 	0 	0 	
0.085 -2.46883e-13 	0 	0 	
0.095 1.76345e-13 	0 	0 	
0.105 1.41076e-13 	0 	0 	
0.115 1.41077e-13 	0 	0 	
0.125 -3.5269e-14 	-4.16037e-30 	0 	
0.135 -1.05807e-13 	0 	0 	
0.145 1.41076e-13 	0 	0 	
0.155 -3.5269e-14 	0 	0 	
0.165 1.41076e-13 	0 	0 	
0.175 2.63134e-24 	-9.29967e-30 	0 	
0.185 1.31567e-24 	-8.32074e-30 	0 	
0.195 1.05807e-13 	0 	0 	
0.205 1.05807e-13 	0 	0 	
0.215 -3.5269e-14 	0 	0 	
0.225 -1.05807e-13 	0 	0 	
0.235 -1.76345e-13 	0 	0 	
0.245 -1.05807e-13 	0 	0 	
0.255 -3.74069e-29 	-9.78913e-30 	0 	
0.265 -1.76345e-13 	-9.29967e-30 	0 	
0.275 -7.88686e-24 	0 	0 	
0.285 -1.05807e-13 	0 	0 	
0.295 3.5269e-14 	0 	0 	
0.305 1.69291e-12 	0 	0 	
0.315 2.1008e-09 	0 	0 	
0.325 5.42361e-07 	0 	0 	
0.335 4.72243e-05 	0 	0 	
0.345 0.00176546 	0 	0 	
0.355 0.0324093 	-8.32139e-30 	0 	
0.365 0.318085 	0 	0 	
0.375 1.79058 	0 	0 	
0.385 6.29849 	0 	0 	
0.395 15.425 	0 	0 	
0.405 29.2758 	-2.93141e-30 	0 	
0.415 46.819 	3.09264e-30 	0 	
0.425 66.7068 	-1.19639e-30 	0 	
0.435 87.5109 	3.19506e-31 	0 	
0.445 107.245 	-6.81322e-31 	0 	
0.455 122.368 	1.0755e-30 	0 	
0.465 129.153 	-1.83709e-31 	0 	
0.475 -10474.2 	0 	0 	
0.485 -8.29021e+13 	8.02367e-32 	0 	
0.495 -1.35986e+29 	-4.27371e-51 	0 	
0.505 -2.03195e+46 	4.50497e-72 	0 	
0.515 -2.6613e+50 	0 	0 	
0.525 -4.96058e+54 	0 	0 	
0.535 -2.76067e+57 	0 	0 	
0.545 6.15226e+55 	0 	0 	
0.555 9.17672e+49 	0 	0 	
0.565 -3.75535e+58 	0 	0 	
0.575 -3.4992e+60 	0 	0 	
0.585 8.85235e+58 	0 	0 	
0.595 -3.91538e+54 	0 	0 	
0.605 1.52165e+46 	0 	0 	
0.615 6.15187e+42 	0 	0 	
0.625 3.15321e+34 	0 	0 	
0.635 1.23048e+21 	0 	0 	
0.645 2.7813e+15 	0 	0 	
0.655 7.37807e+08 	0 	0 	
0.665 0.000959824 	0 	0 	
0.675 7.26346e-06 	0 	0 	
0.685 2.06193e-08 	0 	0 	
0.695 1.23001e-11 	0 	0 	
0.705 9.79716e-25 	0 	0 	
0.715 -2.64517e-13 	0 	0 	
0.725 -5.87818e-24 	0 	0 	
0.735 -1.32259e-13 	0 	0 	
0.745 -1.32259e-13 	0 	0 	
0.755 -2.11614e-13 	0 	0 	
0.765 5.29035e-14 	0 	0 	
0.775 -5.29037e-14 	0 	0 	
0.785 1.05807e-13 	0 	0 	
0.795 2.64515e-14 	0 	0 	
0.805 2.6452e-14 	0 	0 	
0.815 -5.29035e-14 	0 	0 	
0.825 -2.64518e-14 	0 	0 	
0.835 1.85162e-13 	0 	0 	
0.845 2.93379e-24 	0 	0 	
0.855 7.93553e-14 	0 	0 	
0.865 7.93553e-14 	0 	0 	
0.875 5.29035e-14 	0 	0 	
0.885 -2.64518e-14 	0 	0 	
0.895 -5.29036e-14 	0 	0 	
0.905 1.95577e-24 	0 	0 	
0.915 1.85162e-13 	0 	0 	
0.925 -2.64518e-14 	0 	0 	
0.935 -7.93555e-14 	0 	0 	
0.945 -1.05807e-13 	0 	0 	
0.955 2.6452e-14 	0 	0 	
0.965 2.64515e-14 	0 	0 	
0.975 -1.05807e-13 	0 	0 	
0.985 5.29036e-14 	0 	0 	
0.995 1.05807e-13 	0 	0 	
