0.005 -9.71074e-14 	0 	0 	
0.015 5.3756e-14 	0 	0 	
0.025 -1.30054e-13 	0 	0 	
0.035 8.67033e-15 	0 	0 	
0.045 2.77449e-14 	0 	0 	
0.055 5.7224e-14 	0 	0 	
0.065 -7.80325e-14 	0 	0 	
0.075 2.60108e-14 	0 	0 	
0.085 1.07512e-13 	1.10699e-29 	0 	
0.095 1.04044e-13 	0 	0 	
0.105 -6.0692e-14 	0 	0 	
0.115 2.94791e-14 	-5.53493e-30 	0 	
0.125 1.64736e-13 	5.29428e-30 	0 	
0.135 6.58944e-14 	0 	0 	
0.145 -6.93625e-15 	0 	0 	
0.155 1.30054e-13 	0 	0 	
0.165 3.4681e-14 	0 	0 	
0.175 4.99943e-20 	0 	0 	
0.185 -6.76282e-14 	0 	0 	
0.195 6.41603e-14 	0 	0 	
0.205 1.26587e-13 	0 	0 	
0.215 4.50858e-14 	0 	0 	
0.225 -7.80325e-14 	0 	0 	
0.235 -1.23119e-13 	0 	0 	
0.245 4.85539e-14 	0 	0 	
0.255 -1.85545e-13 	0 	0 	
0.265 2.08088e-14 	0 	0 	
0.275 -1.04044e-13 	0 	0 	
0.285 1.33523e-13 	0 	0 	
0.295 -3.12134e-14 	0 	0 	
0.305 1.07512e-13 	0 	0 	
0.315 -1.61268e-13 	0 	0 	
0.325 -6.06921e-14 	0 	0 	
0.335 -1.33523e-13 	0 	0 	
0.345 5.20203e-15 	0 	0 	
0.355 -1.21384e-14 	0 	0 	
0.365 6.93625e-14 	0 	0 	
0.375 3.31643e-09 	0 	0 	
0.385 7.17114e-06 	0 	0 	
0.395 0.00128093 	0 	0 	
0.405 0.0557374 	0 	0 	
0.415 0.831241 	0 	0 	
0.425 5.24777 	0 	0 	
0.435 17.636 	0 	0 	
0.445 39.2295 	0 	0 	
0.455 67.5415 	0 	0 	
0.465 97.9741 	0 	0 	
0.475 121.932 	0 	0 	
0.485 129.862 	0 	0 	
0.495 130.2 	0 	0 	
0.505 130.163 	0 	0 	
0.515 130.134 	0 	0 	
0.525 130.107 	0 	0 	
0.535 130.078 	0 	0 	
0.545 130.029 	0 	0 	
0.555 129.703 	0 	0 	
0.565 131.897 	0 	0 	
0.575 125.027 	0 	0 	
0.585 36.1447 	0 	0 	
0.595 1.46208 	0 	0 	
0.605 0.0180817 	0 	0 	
0.615 6.53787e-05 	0 	0 	
0.625 2.1254e-08 	0 	0 	
0.635 -3.64152e-14 	0 	0 	
0.645 4.81202e-14 	0 	0 	
0.655 1.56064e-14 	0 	0 	
0.665 4.42186e-14 	0 	0 	
0.675 -2.60111e-14 	0 	0 	
0.685 6.24264e-14 	0 	0 	
0.695 -6.89292e-14 	0 	0 	
0.705 7.80325e-14 	0 	0 	
0.715 2.99122e-14 	0 	0 	
0.725 1.04043e-13 	0 	0 	
0.735 -3.51148e-14 	0 	0 	
0.745 -9.10373e-15 	0 	0 	
0.755 1.11847e-13 	0 	0 	
0.765 7.80325e-14 	0 	0 	
0.775 9.75409e-14 	0 	0 	
0.785 1.00142e-13 	0 	0 	
0.795 -2.60111e-14 	0 	0 	
0.805 -1.22251e-13 	0 	0 	
0.815 -1.04045e-14 	0 	0 	
0.825 -2.6011e-14 	0 	0 	
0.835 -1.02743e-13 	0 	0 	
0.845 3.64152e-14 	0 	0 	
0.855 -2.34097e-14 	0 	0 	
0.865 8.71364e-14 	0 	0 	
0.875 6.503e-15 	0 	0 	
0.885 -3.64155e-14 	0 	0 	
0.895 3.90165e-15 	0 	0 	
0.905 -2.34098e-14 	0 	0 	
0.915 6.6328e-14 	0 	0 	
0.925 -9.10383e-14 	0 	0 	
0.935 -5.59235e-14 	0 	0 	
0.945 -2.21096e-14 	0 	0 	
0.955 1.6907e-14 	0 	0 	
0.965 -7.8033e-15 	0 	0 	
0.975 2.60111e-14 	0 	0 	
0.985 -2.47103e-14 	0 	0 	
0.995 -2.6011e-15 	0 	0 	
