0.005 -4.22494e-15 	0 	0 	
0.015 -9.71736e-14 	0 	0 	
0.025 -1.68997e-14 	0 	0 	
0.035 6.33741e-14 	0 	0 	
0.045 -3.80244e-14 	0 	0 	
0.055 1.68998e-14 	0 	0 	
0.065 9.29486e-14 	-2.11078e-30 	0 	
0.075 2.53496e-14 	0 	0 	
0.085 1.39423e-13 	0 	0 	
0.095 -2.53496e-14 	0 	0 	
0.105 5.49242e-14 	0 	0 	
0.115 -2.95746e-14 	0 	0 	
0.125 2.95746e-14 	0 	0 	
0.135 -5.49242e-14 	0 	0 	
0.145 -8.87237e-14 	0 	0 	
0.155 1.14073e-13 	0 	0 	
0.165 -8.44988e-15 	0 	0 	
0.175 -5.49242e-14 	0 	0 	
0.185 -4.22494e-14 	0 	0 	
0.195 -6.33741e-14 	0 	0 	
0.205 1.09848e-13 	0 	0 	
0.215 -2.95746e-14 	0 	0 	
0.225 -9.29486e-14 	0 	0 	
0.235 1.68998e-14 	0 	0 	
0.245 1.43648e-13 	0 	0 	
0.255 2.95746e-14 	0 	0 	
0.265 -3.37995e-14 	0 	0 	
0.275 1.68998e-14 	0 	0 	
0.285 -2.95746e-14 	0 	0 	
0.295 -2.11247e-14 	0 	0 	
0.305 1.43648e-13 	0 	0 	
0.315 2.11247e-14 	0 	0 	
0.325 1.81672e-13 	0 	0 	
0.335 7.18239e-14 	0 	0 	
0.345 2.53496e-14 	0 	0 	
0.355 8.44987e-15 	0 	0 	
0.365 -4.22494e-14 	0 	0 	
0.375 -4.64743e-14 	0 	0 	
0.385 3.80244e-14 	0 	0 	
0.395 -2.02797e-13 	0 	0 	
0.405 -6.33741e-14 	0 	0 	
0.415 1.68998e-14 	0 	0 	
0.425 1.01398e-13 	0 	0 	
0.435 5.49242e-14 	0 	0 	
0.445 0.00826687 	0 	0 	
0.455 0.827251 	0 	0 	
0.465 10.2903 	0 	0 	
0.475 41.761 	0 	0 	
0.485 92.3977 	0 	0 	
0.495 127.935 	0 	0 	
0.505 130.193 	0 	0 	
0.515 130.102 	0 	0 	
0.525 128.072 	0 	0 	
0.535 103.268 	0 	0 	
0.545 21.5041 	0 	0 	
0.555 0.199092 	0 	0 	
0.565 1.13687e-05 	0 	0 	
0.575 -8.74925e-20 	0 	0 	
0.585 -9.50597e-15 	0 	0 	
0.595 3.1687e-14 	0 	0 	
0.605 9.18924e-14 	0 	0 	
0.615 -3.80243e-14 	0 	0 	
0.625 1.01399e-13 	0 	0 	
0.635 5.06992e-14 	0 	0 	
0.645 -3.80242e-14 	0 	0 	
0.655 4.43621e-14 	0 	0 	
0.665 -5.38675e-14 	0 	0 	
0.675 1.01399e-13 	0 	0 	
0.685 8.2386e-14 	0 	0 	
0.695 -1.04567e-13 	0 	0 	
0.705 9.50619e-15 	0 	0 	
0.715 1.58435e-14 	0 	0 	
0.725 9.50611e-15 	1.40719e-30 	0 	
0.735 -6.33741e-14 	0 	0 	
0.745 4.4362e-14 	0 	0 	
0.755 -4.43616e-14 	0 	0 	
0.765 -8.5555e-14 	-5.62874e-30 	0 	
0.775 -1.26749e-14 	0 	0 	
0.785 -3.16837e-15 	0 	0 	
0.795 -3.16872e-14 	0 	0 	
0.805 3.16868e-14 	0 	0 	
0.815 -1.10905e-13 	2.81437e-30 	0 	
0.825 8.87236e-14 	1.05539e-30 	0 	
0.835 -9.506e-15 	0 	0 	
0.845 -8.87238e-14 	0 	0 	
0.855 -3.80246e-14 	0 	0 	
0.865 3.16872e-14 	0 	0 	
0.875 -6.02054e-14 	0 	0 	
0.885 -3.48559e-14 	0 	0 	
0.895 4.75306e-14 	0 	0 	
0.905 1.26745e-14 	0 	0 	
0.915 -8.55549e-14 	0 	0 	
0.925 -6.97115e-14 	0 	0 	
0.935 9.82296e-14 	0 	0 	
0.945 9.18923e-14 	0 	0 	
0.955 2.53495e-14 	0 	0 	
0.965 6.65429e-14 	0 	0 	
0.975 -2.21806e-14 	0 	0 	
0.985 6.3375e-15 	0 	0 	
0.995 -4.43621e-14 	0 	0 	
