0.005 3.12132e-14 	0 	0 	
0.015 9.36391e-14 	0 	0 	
0.025 -1.73406e-14 	0 	0 	
0.035 3.29472e-14 	0 	0 	
0.045 1.0231e-13 	0 	0 	
0.055 -6.58943e-14 	0 	0 	
0.065 3.46813e-14 	0 	0 	
0.075 8.67055e-15 	0 	0 	
0.085 -2.08088e-14 	6.25686e-30 	0 	
0.095 9.71075e-14 	0 	0 	
0.105 -9.19051e-14 	0 	0 	
0.115 8.84372e-14 	-3.36908e-30 	0 	
0.125 -3.46812e-14 	3.36908e-30 	0 	
0.135 2.25427e-14 	0 	0 	
0.145 -1.07512e-13 	0 	0 	
0.155 1.73406e-14 	0 	0 	
0.165 6.93623e-14 	0 	0 	
0.175 4.33518e-14 	0 	0 	
0.185 -2.35055e-24 	0 	0 	
0.195 -5.20218e-15 	0 	0 	
0.205 4.33513e-14 	0 	0 	
0.215 -5.89581e-14 	0 	0 	
0.225 -6.06922e-14 	0 	0 	
0.235 8.6702e-15 	0 	0 	
0.245 4.50856e-14 	0 	0 	
0.255 -5.89582e-14 	0 	0 	
0.265 1.21385e-14 	0 	0 	
0.275 7.80329e-14 	0 	0 	
0.285 2.42768e-14 	0 	0 	
0.295 1.73406e-15 	0 	0 	
0.305 -1.31789e-13 	0 	0 	
0.315 1.17916e-13 	0 	0 	
0.325 -3.46812e-14 	0 	0 	
0.335 -9.01713e-14 	0 	0 	
0.345 -6.93623e-14 	0 	0 	
0.355 -8.4969e-14 	0 	0 	
0.365 3.29472e-14 	0 	0 	
0.375 8.67025e-15 	0 	0 	
0.385 -5.20215e-15 	0 	0 	
0.395 -3.64153e-14 	0 	0 	
0.405 2.9479e-14 	0 	0 	
0.415 -5.3756e-14 	0 	0 	
0.425 1.78932e-06 	0 	0 	
0.435 0.00788137 	0 	0 	
0.445 0.557024 	0 	0 	
0.455 6.85561 	0 	0 	
0.465 29.3909 	0 	0 	
0.475 69.5311 	0 	0 	
0.485 113.362 	0 	0 	
0.495 129.959 	0 	0 	
0.505 130.184 	0 	0 	
0.515 130.129 	0 	0 	
0.525 129.958 	0 	0 	
0.535 125.659 	0 	0 	
0.545 86.481 	0 	0 	
0.555 10.1582 	0 	0 	
0.565 0.0759329 	0 	0 	
0.575 8.91232e-06 	0 	0 	
0.585 -1.1705e-14 	0 	0 	
0.595 2.34094e-14 	0 	0 	
0.605 3.12132e-14 	0 	0 	
0.615 3.25134e-14 	0 	0 	
0.625 -9.10385e-14 	0 	0 	
0.635 -8.81471e-25 	0 	0 	
0.645 7.28305e-14 	0 	0 	
0.655 -1.39158e-13 	0 	0 	
0.665 -1.30087e-15 	0 	0 	
0.675 -9.75407e-14 	0 	0 	
0.685 -6.50232e-15 	0 	0 	
0.695 -6.89287e-14 	0 	0 	
0.705 1.46961e-13 	0 	0 	
0.715 -7.80325e-14 	0 	0 	
0.725 -6.50274e-14 	0 	0 	
0.735 4.29179e-14 	0 	0 	
0.745 1.4306e-14 	0 	0 	
0.755 3.77159e-14 	0 	0 	
0.765 -1.43061e-14 	0 	0 	
0.775 -6.50263e-15 	0 	0 	
0.785 -1.17049e-13 	0 	0 	
0.795 -5.07213e-14 	0 	0 	
0.805 2.71452e-29 	0 	0 	
0.815 -8.97374e-14 	0 	0 	
0.825 -1.30055e-14 	0 	0 	
0.835 9.10381e-15 	0 	0 	
0.845 1.17049e-14 	0 	0 	
0.855 -2.86121e-14 	0 	0 	
0.865 1.95081e-14 	0 	0 	
0.875 1.30055e-14 	0 	0 	
0.885 1.54765e-13 	0 	0 	
0.895 4.812e-14 	0 	0 	
0.905 -9.88413e-14 	0 	0 	
0.915 5.85243e-14 	0 	0 	
0.925 -7.8033e-14 	0 	0 	
0.935 -9.10388e-15 	0 	0 	
0.945 7.54317e-14 	0 	0 	
0.955 3.77155e-14 	0 	0 	
0.965 2.34096e-14 	0 	0 	
0.975 2.60111e-14 	0 	0 	
0.985 -1.10546e-13 	0 	0 	
0.995 7.28307e-14 	0 	0 	
