0.005 0 	0 	0 	
0.015 5.87817e-15 	0 	0 	
0.025 2.93909e-14 	0 	0 	
0.035 4.99645e-14 	0 	0 	
0.045 3.82081e-14 	0 	0 	
0.055 1.17563e-14 	0 	0 	
0.065 -5.87815e-15 	0 	0 	
0.075 -4.11472e-14 	0 	0 	
0.085 -7.64163e-14 	0 	0 	
0.095 -3.52691e-14 	0 	0 	
0.105 3.5269e-14 	0 	0 	
0.115 6.46599e-14 	0 	0 	
0.125 5.87817e-14 	0 	0 	
0.135 8.81723e-15 	0 	0 	
0.145 -5.58427e-14 	-3.26305e-31 	0 	
0.155 -8.81726e-14 	0 	0 	
0.165 -8.52335e-14 	0 	0 	
0.175 -6.46599e-14 	0 	0 	
0.185 -2.93909e-14 	0 	0 	
0.195 2.93908e-14 	0 	0 	
0.205 6.46599e-14 	0 	0 	
0.215 4.11472e-14 	0 	0 	
0.225 1.46954e-14 	0 	0 	
0.235 1.17564e-14 	6.52609e-31 	0 	
0.245 2.9391e-15 	0 	0 	
0.255 2.49999e-20 	0 	0 	
0.265 8.81727e-15 	0 	0 	
0.275 5.87818e-15 	0 	0 	
0.285 0 	0 	0 	
0.295 0 	0 	0 	
0.305 0 	0 	0 	
0.315 2.93907e-15 	0 	0 	
0.325 2.05736e-14 	0 	0 	
0.335 3.82081e-14 	0 	0 	
0.345 8.81725e-15 	0 	0 	
0.355 -3.5269e-14 	0 	0 	
0.365 -2.93909e-14 	0 	0 	
0.375 -1.46954e-14 	0 	0 	
0.385 -2.64517e-14 	0 	0 	
0.395 -2.64518e-14 	0 	0 	
0.405 2.9391e-15 	0 	0 	
0.415 2.93909e-14 	0 	0 	
0.425 2.35127e-14 	0 	0 	
0.435 5.87818e-15 	0 	0 	
0.445 0 	0 	0 	
0.455 0.460305 	0 	0 	
0.465 7.66036 	0 	0 	
0.475 31.585 	0 	0 	
0.485 70.4041 	0 	0 	
0.495 108.909 	0 	0 	
0.505 130.401 	0 	0 	
0.515 124.272 	0 	0 	
0.525 88.7405 	0 	0 	
0.535 40.2046 	0 	0 	
0.545 8.23555 	0 	0 	
0.555 0.0106495 	0 	0 	
0.565 -6.61295e-15 	0 	0 	
0.575 -6.61295e-15 	0 	0 	
0.585 6.61295e-15 	0 	0 	
0.595 6.61295e-15 	0 	0 	
0.605 -1.10216e-14 	0 	0 	
0.615 -3.5269e-14 	0 	0 	
0.625 -4.1882e-14 	0 	0 	
0.635 -1.32259e-14 	0 	0 	
0.645 2.20431e-14 	0 	0 	
0.655 1.32259e-14 	0 	0 	
0.665 -4.40863e-14 	0 	0 	
0.675 -6.39251e-14 	0 	0 	
0.685 -1.32259e-14 	0 	0 	
0.695 4.84948e-14 	0 	0 	
0.705 7.71508e-14 	0 	0 	
0.715 5.06992e-14 	0 	0 	
0.725 1.10216e-14 	0 	0 	
0.735 0 	0 	0 	
0.745 0 	0 	0 	
0.755 -2.20431e-15 	0 	0 	
0.765 -1.54302e-14 	0 	0 	
0.775 -2.20432e-14 	0 	0 	
0.785 -1.54302e-14 	0 	0 	
0.795 -2.42474e-14 	0 	0 	
0.805 -2.20431e-14 	0 	0 	
0.815 1.10216e-14 	-4.89455e-31 	0 	
0.825 3.30647e-14 	0 	0 	
0.835 1.76345e-14 	0 	0 	
0.845 -6.61295e-15 	0 	0 	
0.855 -6.61295e-15 	0 	0 	
0.865 -2.20431e-15 	0 	0 	
0.875 6.61294e-15 	0 	0 	
0.885 2.42475e-14 	0 	0 	
0.895 1.98388e-14 	0 	0 	
0.905 1.08657e-25 	0 	0 	
0.915 -1.98388e-14 	0 	0 	
0.925 -2.64518e-14 	0 	0 	
0.935 -6.61295e-15 	0 	0 	
0.945 1.76345e-14 	0 	0 	
0.955 2.42474e-14 	0 	0 	
0.965 1.32259e-14 	0 	0 	
0.975 2.20432e-15 	0 	0 	
0.985 0 	0 	0 	
0.995 0 	0 	0 	
