0.005 4.70254e-14 	0 	0 	
0.015 9.4051e-14 	0 	0 	
0.025 -2.35126e-14 	0 	0 	
0.035 -7.05381e-14 	0 	0 	
0.045 4.70256e-14 	0 	0 	
0.055 9.40506e-14 	0 	0 	
0.065 7.0538e-14 	0 	0 	
0.075 1.16971e-24 	0 	0 	
0.085 4.70256e-14 	0 	0 	
0.095 1.17564e-13 	0 	0 	
0.105 9.40507e-14 	0 	0 	
0.115 4.70253e-14 	0 	0 	
0.125 -9.40508e-14 	0 	0 	
0.135 -2.35127e-14 	0 	0 	
0.145 -4.70253e-14 	0 	0 	
0.155 -2.35127e-14 	0 	0 	
0.165 -4.70254e-14 	0 	0 	
0.175 1.56626e-29 	0 	0 	
0.185 1.17564e-13 	0 	0 	
0.195 -2.35126e-14 	0 	0 	
0.205 -1.17563e-13 	9.13651e-30 	0 	
0.215 -7.0538e-14 	0 	0 	
0.225 -4.70254e-14 	0 	0 	
0.235 -7.05381e-14 	0 	0 	
0.245 -7.05381e-14 	0 	0 	
0.255 -1.41076e-13 	0 	0 	
0.265 -1.64589e-13 	0 	0 	
0.275 -7.0538e-14 	0 	0 	
0.285 1.17563e-12 	0 	0 	
0.295 1.35598e-10 	0 	0 	
0.305 9.04631e-09 	0 	0 	
0.315 3.89021e-07 	0 	0 	
0.325 1.11532e-05 	0 	0 	
0.335 0.000218368 	0 	0 	
0.345 0.0029697 	0 	0 	
0.355 0.0283794 	0 	0 	
0.365 0.192139 	0 	0 	
0.375 0.930067 	0 	0 	
0.385 3.27821 	0 	0 	
0.395 8.71396 	0 	0 	
0.405 18.3661 	0 	0 	
0.415 32.3916 	0 	0 	
0.425 50.0794 	0 	0 	
0.435 70.2292 	0 	0 	
0.445 91.2152 	0 	0 	
0.455 110.491 	0 	0 	
0.465 124.09 	0 	0 	
0.475 129.473 	0 	0 	
0.485 130.208 	0 	0 	
0.495 130.199 	0 	0 	
0.505 130.172 	-7.39713e-31 	0 	
0.515 130.151 	8.64975e-31 	0 	
0.525 130.133 	-2.02777e-30 	0 	
0.535 130.117 	-9.78024e-31 	0 	
0.545 130.102 	-1.10553e-30 	0 	
0.555 130.086 	0 	0 	
0.565 130.067 	0 	0 	
0.575 130.012 	2.53646e-30 	0 	
0.585 129.678 	2.36808e-30 	0 	
0.595 127.723 	2.37763e-30 	0 	
0.605 118.822 	1.90652e-30 	0 	
0.615 89.3786 	-7.44986e-31 	0 	
0.625 36.5107 	0 	0 	
0.635 6.11118 	0 	0 	
0.645 0.607515 	0 	0 	
0.655 0.0454535 	0 	0 	
0.665 0.00257933 	0 	0 	
0.675 0.000107594 	0 	0 	
0.685 3.19038e-06 	0 	0 	
0.695 6.49041e-08 	0 	0 	
0.705 8.6933e-10 	0 	0 	
0.715 7.24777e-12 	0 	0 	
0.725 7.0538e-14 	0 	0 	
0.735 -1.41076e-13 	0 	0 	
0.745 -5.29035e-14 	0 	0 	
0.755 3.5269e-14 	-3.42619e-30 	0 	
0.765 3.5269e-14 	0 	0 	
0.775 -5.29035e-14 	0 	0 	
0.785 -3.52691e-14 	0 	0 	
0.795 -1.7417e-24 	-3.79329e-30 	0 	
0.805 -1.74168e-24 	-3.67092e-30 	0 	
0.815 -7.0538e-14 	0 	0 	
0.825 -7.0538e-14 	0 	0 	
0.835 8.81725e-14 	0 	0 	
0.845 -1.76345e-14 	0 	0 	
0.855 8.81725e-14 	0 	0 	
0.865 1.76345e-14 	0 	0 	
0.875 8.81725e-14 	0 	0 	
0.885 8.81725e-14 	0 	0 	
0.895 8.69299e-25 	0 	0 	
0.905 -1.76345e-14 	0 	0 	
0.915 5.29036e-14 	0 	0 	
0.925 2.60782e-24 	0 	0 	
0.935 -7.0538e-14 	0 	0 	
0.945 -1.76345e-14 	0 	0 	
0.955 -1.76345e-14 	0 	0 	
0.965 -7.0538e-14 	0 	0 	
0.975 1.76345e-14 	0 	0 	
0.985 6.31089e-30 	0 	0 	
0.995 3.5269e-14 	0 	0 	
