0.005 -2.93908e-14 	0 	0 	
0.015 2.93907e-14 	0 	0 	
0.025 -1.17563e-13 	0 	0 	
0.035 -1.46953e-14 	0 	0 	
0.045 -8.81725e-14 	0 	0 	
0.055 -7.34771e-14 	0 	0 	
0.065 -7.34769e-14 	0 	0 	
0.075 1.46954e-14 	0 	0 	
0.085 -5.87815e-14 	0 	0 	
0.095 -5.87816e-14 	0 	0 	
0.105 -1.46954e-14 	0 	0 	
0.115 -7.34768e-14 	0 	0 	
0.125 1.46955e-14 	0 	0 	
0.135 8.81725e-14 	0 	0 	
0.145 1.17563e-13 	0 	0 	
0.155 2.35127e-13 	0 	0 	
0.165 2.35127e-13 	0 	0 	
0.175 2.35127e-13 	0 	0 	
0.185 1.02868e-13 	0 	0 	
0.195 2.93908e-14 	0 	0 	
0.205 -4.40862e-14 	0 	0 	
0.215 -1.46957e-14 	0 	0 	
0.225 -1.46957e-14 	0 	0 	
0.235 -4.40862e-14 	0 	0 	
0.245 -1.32259e-13 	0 	0 	
0.255 -1.02868e-13 	0 	0 	
0.265 -1.91041e-13 	0 	0 	
0.275 -1.46954e-13 	0 	0 	
0.285 -2.20432e-13 	0 	0 	
0.295 -1.76345e-13 	0 	0 	
0.305 1.46952e-14 	0 	0 	
0.315 2.93909e-14 	0 	0 	
0.325 5.87818e-14 	0 	0 	
0.335 1.76345e-13 	0 	0 	
0.345 5.87817e-14 	0 	0 	
0.355 1.46954e-14 	0 	0 	
0.365 5.10225e-11 	0 	0 	
0.375 8.83415e-08 	0 	0 	
0.385 2.26324e-05 	0 	0 	
0.395 0.00167883 	0 	0 	
0.405 0.0477728 	0 	0 	
0.415 0.604979 	0 	0 	
0.425 3.8093 	0 	0 	
0.435 13.6394 	0 	0 	
0.445 32.5391 	0 	0 	
0.455 59.295 	0 	0 	
0.465 89.9712 	0 	0 	
0.475 116.958 	0 	0 	
0.485 129.099 	0 	0 	
0.495 130.214 	0 	0 	
0.505 130.179 	0 	0 	
0.515 130.146 	0 	0 	
0.525 130.118 	0 	0 	
0.535 130.089 	0 	0 	
0.545 129.994 	0 	0 	
0.555 128.967 	0 	0 	
0.565 120.6 	0 	0 	
0.575 81.2182 	0 	0 	
0.585 16.8855 	0 	0 	
0.595 0.840438 	0 	0 	
0.605 0.0189837 	0 	0 	
0.615 0.000185723 	0 	0 	
0.625 5.66212e-07 	0 	0 	
0.635 2.64044e-10 	0 	0 	
0.645 4.40862e-14 	0 	0 	
0.655 2.20431e-14 	0 	0 	
0.665 9.91941e-14 	0 	0 	
0.675 -1.10216e-14 	0 	0 	
0.685 7.71511e-14 	0 	0 	
0.695 -4.40862e-14 	0 	0 	
0.705 2.20432e-14 	0 	0 	
0.715 3.30647e-14 	0 	0 	
0.725 1.10216e-14 	0 	0 	
0.735 -3.30647e-14 	0 	0 	
0.745 -7.71509e-14 	0 	0 	
0.755 -1.10216e-13 	0 	0 	
0.765 -9.91939e-14 	0 	0 	
0.775 -1.54302e-13 	0 	0 	
0.785 -6.61293e-14 	0 	0 	
0.795 -6.31089e-30 	0 	0 	
0.805 4.99959e-20 	0 	0 	
0.815 -2.20432e-14 	0 	0 	
0.825 -3.30648e-14 	0 	0 	
0.835 7.71509e-14 	0 	0 	
0.845 8.81725e-14 	0 	0 	
0.855 3.30648e-14 	0 	0 	
0.865 8.81723e-14 	0 	0 	
0.875 3.30648e-14 	0 	0 	
0.885 6.61293e-14 	0 	0 	
0.895 -4.99959e-20 	0 	0 	
0.905 2.20432e-14 	0 	0 	
0.915 -5.51081e-14 	0 	0 	
0.925 -5.51079e-14 	0 	0 	
0.935 1.10216e-14 	0 	0 	
0.945 4.40863e-14 	0 	0 	
0.955 6.61295e-14 	0 	0 	
0.965 8.81727e-14 	0 	0 	
0.975 4.40863e-14 	0 	0 	
0.985 1.10215e-14 	0 	0 	
0.995 3.30647e-14 	0 	0 	
