0.005 4.90141e-14 	0 	0 	
0.015 8.22944e-14 	0 	0 	
0.025 9.99288e-14 	0 	0 	
0.035 9.11115e-14 	0 	0 	
0.045 3.52689e-14 	0 	0 	
0.055 -2.35127e-14 	0 	0 	
0.065 -2.93909e-14 	0 	0 	
0.075 -2.05736e-14 	0 	0 	
0.085 -2.64518e-14 	0 	0 	
0.095 -1.17563e-14 	0 	0 	
0.105 1.17563e-14 	0 	0 	
0.115 1.17563e-14 	0 	0 	
0.125 -1.17563e-14 	0 	0 	
0.135 -5.58426e-14 	0 	0 	
0.145 -9.99289e-14 	-5.05771e-30 	0 	
0.155 -1.26381e-13 	0 	0 	
0.165 -1.58711e-13 	0 	0 	
0.175 -2.05736e-13 	0 	0 	
0.185 -2.11614e-13 	0 	0 	
0.195 -1.5871e-13 	0 	0 	
0.205 -1.05807e-13 	0 	0 	
0.215 -6.17208e-14 	0 	0 	
0.225 5.87815e-15 	0 	0 	
0.235 6.17208e-14 	1.01154e-29 	0 	
0.245 7.05381e-14 	0 	0 	
0.255 5.87817e-14 	0 	0 	
0.265 4.70254e-14 	0 	0 	
0.275 4.11472e-14 	0 	0 	
0.285 3.233e-14 	0 	0 	
0.295 1.17564e-14 	0 	0 	
0.305 0 	0 	0 	
0.315 -2.93907e-15 	0 	0 	
0.325 2.9391e-15 	0 	0 	
0.335 8.81725e-15 	0 	0 	
0.345 -2.9391e-15 	0 	0 	
0.355 -1.17563e-14 	0 	0 	
0.365 -2.93909e-14 	0 	0 	
0.375 0.254547 	0 	0 	
0.385 3.49627 	0 	0 	
0.395 13.6585 	0 	0 	
0.405 30.3539 	0 	0 	
0.415 50.243 	0 	0 	
0.425 71.0817 	0 	0 	
0.435 91.336 	0 	0 	
0.445 108.943 	0 	0 	
0.455 121.614 	0 	0 	
0.465 128.284 	0 	0 	
0.475 130.202 	0 	0 	
0.485 130.057 	0 	0 	
0.495 129.72 	0 	0 	
0.505 129.836 	0 	0 	
0.515 130.328 	0 	0 	
0.525 130.7 	0 	0 	
0.535 130.751 	0 	0 	
0.545 130.479 	0 	0 	
0.555 129.862 	0 	0 	
0.565 129.392 	0 	0 	
0.575 129.402 	-3.39708e-30 	0 	
0.585 129.399 	-2.37044e-30 	0 	
0.595 129.66 	0 	0 	
0.605 129.008 	0 	0 	
0.615 120.83 	0 	0 	
0.625 94.1139 	0 	0 	
0.635 49.8887 	0 	0 	
0.645 13.5023 	0 	0 	
0.655 0.895943 	0 	0 	
0.665 2.20432e-15 	0 	0 	
0.675 1.54302e-14 	0 	0 	
0.685 3.74733e-14 	0 	0 	
0.695 4.40863e-14 	0 	0 	
0.705 5.06992e-14 	0 	0 	
0.715 5.29036e-14 	0 	0 	
0.725 6.61295e-14 	0 	0 	
0.735 8.81728e-14 	0 	0 	
0.745 6.61295e-14 	0 	0 	
0.755 2.42475e-14 	0 	0 	
0.765 4.40863e-15 	0 	0 	
0.775 -4.40862e-15 	0 	0 	
0.785 -2.20431e-14 	0 	0 	
0.795 -3.30647e-14 	0 	0 	
0.805 -1.76345e-14 	0 	0 	
0.815 -6.61294e-15 	-7.58658e-30 	0 	
0.825 -1.76345e-14 	0 	0 	
0.835 -3.30647e-14 	0 	0 	
0.845 -3.74734e-14 	0 	0 	
0.855 -2.64518e-14 	0 	0 	
0.865 -6.61296e-15 	0 	0 	
0.875 -4.40864e-15 	0 	0 	
0.885 -4.8495e-14 	0 	0 	
0.895 -8.59685e-14 	0 	0 	
0.905 -5.95166e-14 	0 	0 	
0.915 -2.86561e-14 	0 	0 	
0.925 -2.86561e-14 	0 	0 	
0.935 -1.54302e-14 	0 	0 	
0.945 3.74734e-14 	0 	0 	
0.955 1.03603e-13 	0 	0 	
0.965 1.19033e-13 	0 	0 	
0.975 8.81726e-14 	0 	0 	
0.985 6.61294e-14 	0 	0 	
0.995 4.89007e-14 	0 	0 	
