0.005 -6.7011e-14 	0 	0 	
0.015 1.67528e-14 	0 	0 	
0.025 1.00517e-13 	0 	0 	
0.035 3.51809e-13 	0 	0 	
0.045 1.02192e-13 	0 	0 	
0.055 8.04134e-14 	0 	0 	
0.065 3.01548e-14 	0 	0 	
0.075 1.67528e-14 	0 	0 	
0.085 7.53876e-14 	0 	0 	
0.095 7.37127e-14 	0 	0 	
0.105 8.81448e-26 	0 	0 	
0.115 1.45749e-13 	0 	0 	
0.125 9.214e-14 	0 	0 	
0.135 1.17525e-25 	0 	0 	
0.145 -5.69593e-14 	0 	0 	
0.155 -6.86862e-14 	0 	0 	
0.165 -4.18824e-14 	0 	0 	
0.175 5.86349e-14 	0 	0 	
0.185 -3.35033e-15 	0 	0 	
0.195 1.8428e-14 	0 	0 	
0.205 7.20373e-14 	0 	0 	
0.215 -6.3661e-14 	0 	0 	
0.225 -1.00517e-13 	0 	0 	
0.235 -2.34538e-14 	0 	0 	
0.245 8.87897e-14 	0 	0 	
0.255 5.69594e-14 	0 	0 	
0.265 -5.02582e-15 	0 	0 	
0.275 1.43236e-12 	0 	0 	
0.285 6.00642e-10 	0 	0 	
0.295 8.00184e-08 	0 	0 	
0.305 5.2021e-06 	0 	0 	
0.315 0.000184828 	0 	0 	
0.325 0.00362871 	0 	0 	
0.335 0.0425639 	0 	0 	
0.345 0.318281 	0 	0 	
0.355 1.52189 	0 	0 	
0.365 4.9566 	0 	0 	
0.375 11.9003 	0 	0 	
0.385 22.6675 	0 	0 	
0.395 36.696 	0 	0 	
0.405 53.0848 	0 	0 	
0.415 70.8933 	0 	0 	
0.425 89.1373 	-3.0756e-31 	0 	
0.435 106.445 	0 	0 	
0.445 120.398 	0 	0 	
0.455 128.095 	0 	0 	
0.465 130.067 	1.2264e-30 	0 	
0.475 130.192 	0 	0 	
0.485 130.169 	0 	0 	
0.495 130.151 	0 	0 	
0.505 130.136 	0 	0 	
0.515 130.125 	0 	0 	
0.525 130.115 	0 	0 	
0.535 130.107 	0 	0 	
0.545 130.099 	0 	0 	
0.555 130.091 	0 	0 	
0.565 130.083 	0 	0 	
0.575 130.075 	0 	0 	
0.585 130.066 	0 	0 	
0.595 130.055 	0 	0 	
0.605 130.037 	0 	0 	
0.615 129.943 	0 	0 	
0.625 129.711 	0 	0 	
0.635 137.674 	0 	0 	
0.645 114.844 	0 	0 	
0.655 53.1649 	0 	0 	
0.665 4.62683 	0 	0 	
0.675 0.187271 	0 	0 	
0.685 0.00530742 	0 	0 	
0.695 9.63883e-05 	0 	0 	
0.705 1.07394e-06 	0 	0 	
0.715 6.25751e-09 	0 	0 	
0.725 1.37645e-11 	0 	0 	
0.735 2.88986e-14 	0 	0 	
0.745 1.99777e-13 	0 	0 	
0.755 4.27197e-14 	0 	0 	
0.765 1.21877e-13 	0 	0 	
0.775 8.79524e-14 	0 	0 	
0.785 7.41314e-14 	0 	0 	
0.795 -2.5129e-14 	0 	0 	
0.805 8.54394e-14 	0 	0 	
0.815 -1.13081e-14 	0 	0 	
0.825 6.28225e-15 	0 	0 	
0.835 3.76938e-15 	0 	0 	
0.845 -3.39243e-14 	0 	0 	
0.855 -5.15147e-14 	0 	0 	
0.865 -6.65925e-14 	0 	0 	
0.875 4.39764e-14 	0 	0 	
0.885 4.77453e-14 	0 	0 	
0.895 -2.51295e-15 	0 	0 	
0.905 7.53878e-15 	0 	0 	
0.915 8.92087e-14 	0 	0 	
0.925 -1.00517e-13 	0 	0 	
0.935 4.64891e-14 	0 	0 	
0.945 -6.031e-14 	0 	0 	
0.955 -3.01551e-14 	0 	0 	
0.965 -6.91052e-14 	0 	0 	
0.975 7.53876e-14 	0 	0 	
0.985 1.25651e-15 	0 	0 	
0.995 -8.41824e-14 	0 	0 	
