0.005 3.64156e-14 	0 	0 	
0.015 5.37558e-14 	0 	0 	
0.025 -5.20216e-14 	0 	0 	
0.035 7.62985e-14 	0 	0 	
0.045 -3.46838e-15 	0 	0 	
0.055 5.7224e-14 	0 	0 	
0.065 4.85537e-14 	0 	0 	
0.075 9.53735e-14 	0 	0 	
0.085 -5.20218e-15 	1.15512e-29 	0 	
0.095 6.41603e-14 	0 	0 	
0.105 1.97683e-13 	0 	0 	
0.115 1.38726e-14 	-5.77558e-30 	0 	
0.125 2.51439e-13 	5.53493e-30 	0 	
0.135 2.42768e-14 	0 	0 	
0.145 1.16182e-13 	0 	0 	
0.155 3.46807e-15 	0 	0 	
0.165 -1.04044e-14 	0 	0 	
0.175 1.56065e-13 	0 	0 	
0.185 -6.93625e-14 	0 	0 	
0.195 -2.32364e-13 	0 	0 	
0.205 -9.71075e-14 	0 	0 	
0.215 4.50857e-14 	0 	0 	
0.225 4.3352e-14 	0 	0 	
0.235 -1.16182e-13 	0 	0 	
0.245 5.72239e-14 	0 	0 	
0.255 -1.6647e-13 	0 	0 	
0.265 1.24853e-13 	0 	0 	
0.275 6.06923e-14 	0 	0 	
0.285 -1.56065e-14 	0 	0 	
0.295 -6.24262e-14 	0 	0 	
0.305 1.00576e-13 	0 	0 	
0.315 8.84371e-14 	0 	0 	
0.325 3.46812e-14 	0 	0 	
0.335 -1.36991e-13 	0 	0 	
0.345 5.20233e-15 	0 	0 	
0.355 -1.1965e-13 	0 	0 	
0.365 1.87591e-11 	0 	0 	
0.375 2.54666e-07 	0 	0 	
0.385 9.91615e-05 	0 	0 	
0.395 0.00753147 	0 	0 	
0.405 0.184219 	0 	0 	
0.415 1.79938 	0 	0 	
0.425 8.42637 	0 	0 	
0.435 23.4058 	0 	0 	
0.445 46.4848 	0 	0 	
0.455 74.7556 	0 	0 	
0.465 103.585 	0 	0 	
0.475 124.315 	0 	0 	
0.485 130.025 	0 	0 	
0.495 130.196 	0 	0 	
0.505 130.161 	0 	0 	
0.515 130.133 	0 	0 	
0.525 130.107 	0 	0 	
0.535 130.078 	0 	0 	
0.545 130.032 	0 	0 	
0.555 129.962 	0 	0 	
0.565 126.392 	0 	0 	
0.575 80.8246 	0 	0 	
0.585 40.5371 	0 	0 	
0.595 7.58035 	0 	0 	
0.605 0.146217 	0 	0 	
0.615 0.00115407 	0 	0 	
0.625 2.0341e-06 	0 	0 	
0.635 1.05004e-10 	0 	0 	
0.645 -9.10357e-15 	0 	0 	
0.655 -6.11259e-14 	0 	0 	
0.665 7.54315e-14 	0 	0 	
0.675 1.95081e-14 	0 	0 	
0.685 2.21094e-14 	0 	0 	
0.695 -2.47104e-14 	0 	0 	
0.705 5.33225e-14 	0 	0 	
0.715 7.93331e-14 	0 	0 	
0.725 1.17049e-13 	0 	0 	
0.735 -1.04043e-13 	0 	0 	
0.745 -5.20192e-15 	0 	0 	
0.755 -5.85245e-14 	0 	0 	
0.765 6.76282e-14 	0 	0 	
0.775 -7.80326e-14 	0 	0 	
0.785 1.82078e-14 	0 	0 	
0.795 -2.47105e-14 	0 	0 	
0.805 4.16176e-14 	0 	0 	
0.815 -3.64154e-14 	0 	0 	
0.825 2.60111e-14 	0 	0 	
0.835 -3.25134e-14 	0 	0 	
0.845 9.10391e-15 	0 	0 	
0.855 6.11255e-14 	0 	0 	
0.865 -7.54315e-14 	0 	0 	
0.875 -9.75409e-14 	0 	0 	
0.885 -8.45353e-14 	0 	0 	
0.895 2.73115e-14 	0 	0 	
0.905 5.33221e-14 	0 	0 	
0.915 -5.85247e-14 	0 	0 	
0.925 -5.20218e-14 	0 	0 	
0.935 5.20205e-15 	0 	0 	
0.945 1.6907e-14 	0 	0 	
0.955 4.03169e-14 	0 	0 	
0.965 -3.51147e-14 	0 	0 	
0.975 -4.5519e-14 	0 	0 	
0.985 -9.23391e-14 	0 	0 	
0.995 -2.04185e-13 	0 	0 	
