0.005 -2.72747e-14 	0 	0 	
0.015 6.1368e-14 	0 	0 	
0.025 -1.70465e-14 	0 	0 	
0.035 2.04559e-14 	0 	0 	
0.045 3.75027e-14 	0 	0 	
0.055 -2.21607e-13 	0 	0 	
0.065 5.45491e-14 	0 	0 	
0.075 6.8187e-14 	0 	0 	
0.085 -2.0456e-14 	0 	0 	
0.095 8.86426e-14 	0 	0 	
0.105 -7.84146e-14 	0 	0 	
0.115 -2.72749e-14 	0 	0 	
0.125 -1.7047e-14 	0 	0 	
0.135 -5.79589e-14 	0 	0 	
0.145 1.94333e-13 	0 	0 	
0.155 -1.22736e-13 	0 	0 	
0.165 2.38654e-14 	0 	0 	
0.175 1.70468e-14 	0 	0 	
0.185 3.40934e-14 	-9.46281e-31 	0 	
0.195 -5.7959e-14 	0 	0 	
0.205 5.79589e-14 	0 	0 	
0.215 1.0228e-13 	0 	0 	
0.225 1.36373e-13 	0 	0 	
0.235 7.50053e-14 	0 	0 	
0.245 1.26145e-13 	0 	0 	
0.255 5.45493e-14 	-1.18285e-30 	0 	
0.265 -5.11401e-14 	-5.91426e-31 	0 	
0.275 -1.5342e-13 	0 	0 	
0.285 -6.81865e-15 	0 	0 	
0.295 -3.06841e-14 	0 	0 	
0.305 -2.04557e-14 	0 	0 	
0.315 -1.70466e-14 	0 	0 	
0.325 -5.11401e-14 	0 	0 	
0.335 -5.11403e-14 	0 	0 	
0.345 -2.14789e-13 	0 	0 	
0.355 -1.05689e-13 	-4.73142e-31 	0 	
0.365 -9.54618e-14 	0 	0 	
0.375 -1.0228e-13 	0 	0 	
0.385 -2.38651e-14 	0 	0 	
0.395 1.0228e-14 	0 	0 	
0.405 -8.1824e-14 	0 	0 	
0.415 1.70469e-14 	0 	0 	
0.425 5.114e-14 	0 	0 	
0.435 9.8871e-14 	0 	0 	
0.445 1.19327e-13 	0 	0 	
0.455 -1.22737e-13 	0 	0 	
0.465 -1.05689e-13 	0 	0 	
0.475 0.560241 	0 	0 	
0.485 21.9672 	0 	0 	
0.495 100.147 	3.31928e-31 	0 	
0.505 129.756 	0 	0 	
0.515 96.2282 	0 	0 	
0.525 3.83155 	0 	0 	
0.535 -5.6254e-14 	0 	0 	
0.545 1.53425e-14 	0 	0 	
0.555 -4.0912e-14 	0 	0 	
0.565 -4.60262e-14 	0 	0 	
0.575 -5.11398e-14 	0 	0 	
0.585 -3.0684e-14 	0 	0 	
0.595 -7.9267e-14 	0 	0 	
0.605 7.67101e-15 	0 	0 	
0.615 -1.78994e-14 	0 	0 	
0.625 6.3925e-14 	0 	0 	
0.635 -3.32409e-14 	0 	0 	
0.645 -4.34689e-14 	0 	0 	
0.655 -2.55695e-15 	0 	0 	
0.665 -3.5798e-14 	0 	0 	
0.675 -1.27851e-14 	0 	0 	
0.685 -1.02281e-14 	0 	0 	
0.695 -2.0456e-14 	0 	0 	
0.705 -2.55701e-15 	0 	0 	
0.715 -5.88109e-14 	0 	0 	
0.725 -1.2785e-14 	0 	0 	
0.735 3.8355e-14 	0 	0 	
0.745 -2.0456e-14 	0 	0 	
0.755 5.88109e-14 	0 	0 	
0.765 -1.5001e-19 	0 	0 	
0.775 -2.557e-14 	0 	0 	
0.785 -3.0684e-14 	0 	0 	
0.795 -1.22736e-13 	0 	0 	
0.805 -4.0912e-14 	0 	0 	
0.815 -1.02284e-14 	0 	0 	
0.825 -6.39248e-14 	0 	0 	
0.835 -1.27851e-14 	0 	0 	
0.845 -5.6254e-14 	0 	0 	
0.855 9.2052e-14 	0 	0 	
0.865 -2.557e-14 	0 	0 	
0.875 2.557e-14 	0 	0 	
0.885 -3.57981e-14 	0 	0 	
0.895 1.7899e-14 	0 	0 	
0.905 -6.9039e-14 	0 	0 	
0.915 8.9495e-14 	0 	0 	
0.925 -2.557e-14 	0 	0 	
0.935 -3.32411e-14 	0 	0 	
0.945 8.81461e-26 	0 	0 	
0.955 -1.22736e-13 	0 	0 	
0.965 -5.11435e-15 	0 	0 	
0.975 -1.27852e-14 	0 	0 	
0.985 -4.3469e-14 	0 	0 	
0.995 -4.0912e-14 	0 	0 	
