0.005 4.90141e-14 	0 	0 	
0.015 8.22944e-14 	0 	0 	
0.025 1.02868e-13 	0 	0 	
0.035 1.2932e-13 	0 	0 	
0.045 1.46955e-13 	0 	0 	
0.055 1.20503e-13 	0 	0 	
0.065 5.58427e-14 	0 	0 	
0.075 -2.35127e-14 	0 	0 	
0.085 -7.34771e-14 	0 	0 	
0.095 -8.81726e-14 	0 	0 	
0.105 -1.14624e-13 	0 	0 	
0.115 -1.2932e-13 	0 	0 	
0.125 -1.44015e-13 	0 	0 	
0.135 -2.08675e-13 	0 	0 	
0.145 -2.64518e-13 	-1.79468e-30 	0 	
0.155 -2.55701e-13 	1.63152e-30 	0 	
0.165 -2.11614e-13 	0 	0 	
0.175 -1.6165e-13 	0 	0 	
0.185 -9.40507e-14 	0 	0 	
0.195 -5.87815e-15 	0 	0 	
0.205 4.99645e-14 	0 	0 	
0.215 5.58427e-14 	0 	0 	
0.225 8.22944e-14 	1.63152e-31 	0 	
0.235 1.11685e-13 	8.4839e-30 	0 	
0.245 9.11116e-14 	6.52609e-31 	0 	
0.255 6.46599e-14 	0 	0 	
0.265 5.58426e-14 	0 	0 	
0.275 4.99645e-14 	0 	0 	
0.285 5.29036e-14 	0 	0 	
0.295 6.46599e-14 	0 	0 	
0.305 7.05381e-14 	0 	0 	
0.315 8.52336e-14 	0 	0 	
0.325 1.02868e-13 	0 	0 	
0.335 7.64163e-14 	0 	0 	
0.345 5.83435e-25 	0 	0 	
0.355 -8.52334e-14 	0 	0 	
0.365 -1.44015e-13 	0 	0 	
0.375 -1.58711e-13 	0 	0 	
0.385 0.989275 	0 	0 	
0.395 6.75237 	0 	0 	
0.405 20.2992 	0 	0 	
0.415 39.4728 	0 	0 	
0.425 60.7133 	0 	0 	
0.435 81.9608 	0 	0 	
0.445 101.195 	0 	0 	
0.455 116.175 	0 	0 	
0.465 125.232 	0 	0 	
0.475 128.785 	0 	0 	
0.485 129.546 	0 	0 	
0.495 129.885 	0 	0 	
0.505 130.397 	0 	0 	
0.515 130.798 	0 	0 	
0.525 130.78 	0 	0 	
0.535 130.321 	0 	0 	
0.545 129.672 	0 	0 	
0.555 129.262 	0 	0 	
0.565 129.326 	0 	0 	
0.575 129.726 	-2.37188e-30 	0 	
0.585 130.065 	-1.52136e-30 	0 	
0.595 129.375 	0 	0 	
0.605 123.196 	0 	0 	
0.615 100.091 	0 	0 	
0.625 56.898 	0 	0 	
0.635 17.3329 	0 	0 	
0.645 1.62739 	0 	0 	
0.655 -2.86561e-14 	0 	0 	
0.665 -1.98388e-14 	0 	0 	
0.675 -6.61293e-15 	0 	0 	
0.685 2.64518e-14 	0 	0 	
0.695 5.95165e-14 	0 	0 	
0.705 5.29036e-14 	0 	0 	
0.715 2.64518e-14 	0 	0 	
0.725 4.8495e-14 	0 	0 	
0.735 9.03771e-14 	0 	0 	
0.745 7.93554e-14 	0 	0 	
0.755 4.40863e-14 	0 	0 	
0.765 3.08604e-14 	0 	0 	
0.775 3.30647e-14 	0 	0 	
0.785 2.20431e-14 	0 	0 	
0.795 6.61295e-15 	0 	0 	
0.805 1.98388e-14 	0 	0 	
0.815 3.74733e-14 	-7.09712e-30 	0 	
0.825 2.86561e-14 	0 	0 	
0.835 6.61294e-15 	0 	0 	
0.845 -1.76345e-14 	0 	0 	
0.855 -3.74734e-14 	0 	0 	
0.865 -4.40863e-14 	0 	0 	
0.875 -5.73122e-14 	0 	0 	
0.885 -7.27424e-14 	0 	0 	
0.895 -7.05381e-14 	0 	0 	
0.905 -5.51079e-14 	0 	0 	
0.915 -4.1882e-14 	0 	0 	
0.925 -3.96777e-14 	0 	0 	
0.935 -1.76345e-14 	0 	0 	
0.945 2.42475e-14 	0 	0 	
0.955 5.73122e-14 	0 	0 	
0.965 8.81726e-14 	0 	0 	
0.975 1.08011e-13 	0 	0 	
0.985 9.69899e-14 	0 	0 	
0.995 6.50767e-14 	0 	0 	
