0.005 4.90141e-14 	0 	0 	
0.015 8.22944e-14 	0 	0 	
0.025 9.99288e-14 	0 	0 	
0.035 9.11115e-14 	0 	0 	
0.045 3.52689e-14 	0 	0 	
0.055 -2.35127e-14 	0 	0 	
0.065 -2.93909e-14 	0 	0 	
0.075 -2.05736e-14 	0 	0 	
0.085 -2.64518e-14 	0 	0 	
0.095 -1.17563e-14 	0 	0 	
0.105 1.17563e-14 	0 	0 	
0.115 1.17563e-14 	0 	0 	
0.125 -1.17563e-14 	0 	0 	
0.135 -5.58426e-14 	0 	0 	
0.145 -9.99289e-14 	-3.26305e-30 	0 	
0.155 -1.38137e-13 	0 	0 	
0.165 -1.88102e-13 	0 	0 	
0.175 -2.05736e-13 	0 	0 	
0.185 -1.26381e-13 	0 	0 	
0.195 -5.87813e-15 	0 	0 	
0.205 4.40863e-14 	0 	0 	
0.215 3.82081e-14 	0 	0 	
0.225 6.17207e-14 	0 	0 	
0.235 8.52333e-14 	6.52609e-30 	0 	
0.245 5.58425e-14 	0 	0 	
0.255 2.93908e-14 	0 	0 	
0.265 2.64518e-14 	0 	0 	
0.275 1.17564e-14 	0 	0 	
0.285 0 	0 	0 	
0.295 0 	0 	0 	
0.305 0 	0 	0 	
0.315 -2.93907e-15 	0 	0 	
0.325 2.9391e-15 	0 	0 	
0.335 8.81725e-15 	0 	0 	
0.345 -2.9391e-15 	0 	0 	
0.355 -5.87818e-15 	0 	0 	
0.365 0 	0 	0 	
0.375 -1.17563e-14 	0 	0 	
0.385 -3.5269e-14 	0 	0 	
0.395 -5.58426e-14 	0 	0 	
0.405 -5.87817e-14 	0 	0 	
0.415 1.00704 	0 	0 	
0.425 7.81257 	0 	0 	
0.435 25.0789 	0 	0 	
0.445 50.4362 	0 	0 	
0.455 78.289 	0 	0 	
0.465 103.377 	0 	0 	
0.475 121.122 	0 	0 	
0.485 129.848 	0 	0 	
0.495 131.355 	0 	0 	
0.505 130.09 	0 	0 	
0.515 129.09 	0 	0 	
0.525 128.939 	0 	0 	
0.535 129.852 	0 	0 	
0.545 130.56 	0 	0 	
0.555 130.255 	0 	0 	
0.565 126.471 	0 	0 	
0.575 107.568 	-1.40368e-30 	0 	
0.585 66.5134 	0 	0 	
0.595 23.6931 	0 	0 	
0.605 3.26235 	0 	0 	
0.615 -6.39251e-14 	0 	0 	
0.625 -7.27424e-14 	0 	0 	
0.635 -7.05381e-14 	0 	0 	
0.645 -2.86561e-14 	0 	0 	
0.655 2.2043e-15 	0 	0 	
0.665 -2.86561e-14 	0 	0 	
0.675 -5.06992e-14 	0 	0 	
0.685 -1.10216e-14 	0 	0 	
0.695 4.62906e-14 	0 	0 	
0.705 6.61295e-14 	0 	0 	
0.715 5.06992e-14 	0 	0 	
0.725 6.17209e-14 	0 	0 	
0.735 8.81728e-14 	0 	0 	
0.745 6.61295e-14 	0 	0 	
0.755 2.42475e-14 	0 	0 	
0.765 4.40863e-15 	0 	0 	
0.775 -4.40862e-15 	0 	0 	
0.785 -2.20431e-14 	0 	0 	
0.795 -2.64518e-14 	0 	0 	
0.805 2.2043e-15 	0 	0 	
0.815 2.42475e-14 	-4.89455e-30 	0 	
0.825 1.98389e-14 	0 	0 	
0.835 6.61295e-15 	0 	0 	
0.845 0 	0 	0 	
0.855 -6.61295e-15 	0 	0 	
0.865 -3.08604e-14 	0 	0 	
0.875 -5.29036e-14 	0 	0 	
0.885 -4.62906e-14 	0 	0 	
0.895 -3.96777e-14 	0 	0 	
0.905 -3.96777e-14 	0 	0 	
0.915 -2.64518e-14 	0 	0 	
0.925 -1.98388e-14 	0 	0 	
0.935 -4.40863e-15 	0 	0 	
0.945 2.20431e-14 	0 	0 	
0.955 3.74733e-14 	0 	0 	
0.965 5.06992e-14 	0 	0 	
0.975 5.06993e-14 	0 	0 	
0.985 4.84949e-14 	0 	0 	
0.995 4.44921e-14 	0 	0 	
