0.005 4.26387e-14 	0 	0 	
0.015 7.93553e-14 	0 	0 	
0.025 9.99288e-14 	0 	0 	
0.035 9.11115e-14 	0 	0 	
0.045 3.52689e-14 	0 	0 	
0.055 -2.35127e-14 	0 	0 	
0.065 -2.64518e-14 	0 	0 	
0.075 -2.35127e-14 	0 	0 	
0.085 -4.11472e-14 	0 	0 	
0.095 -1.46954e-14 	0 	0 	
0.105 2.35127e-14 	0 	0 	
0.115 2.93908e-14 	0 	0 	
0.125 2.64518e-14 	0 	0 	
0.135 -1.76344e-14 	0 	0 	
0.145 -1.14624e-13 	-2.28413e-30 	0 	
0.155 -1.70467e-13 	0 	0 	
0.165 -1.44015e-13 	0 	0 	
0.175 -1.02868e-13 	0 	0 	
0.185 -5.29034e-14 	0 	0 	
0.195 1.76345e-14 	0 	0 	
0.205 4.99645e-14 	0 	0 	
0.215 4.11472e-14 	0 	0 	
0.225 6.17207e-14 	0 	0 	
0.235 8.22942e-14 	4.56826e-30 	0 	
0.245 4.99643e-14 	0 	0 	
0.255 8.81723e-15 	0 	0 	
0.265 -8.81727e-15 	0 	0 	
0.275 -5.87818e-15 	0 	0 	
0.285 0 	0 	0 	
0.295 0 	0 	0 	
0.305 0 	0 	0 	
0.315 -2.93907e-15 	0 	0 	
0.325 2.9391e-15 	0 	0 	
0.335 8.81725e-15 	0 	0 	
0.345 -2.9391e-15 	0 	0 	
0.355 -5.87818e-15 	0 	0 	
0.365 0 	0 	0 	
0.375 -8.81725e-15 	0 	0 	
0.385 -2.64517e-14 	0 	0 	
0.395 -4.11472e-14 	0 	0 	
0.405 -3.23299e-14 	0 	0 	
0.415 1.46954e-14 	0 	0 	
0.425 4.40863e-14 	0 	0 	
0.435 1.1177 	0 	0 	
0.445 9.30914 	0 	0 	
0.455 30.9 	0 	0 	
0.465 62.7818 	0 	0 	
0.475 95.811 	0 	0 	
0.485 119.634 	0 	0 	
0.495 128.829 	0 	0 	
0.505 129.821 	0 	0 	
0.515 130.846 	0 	0 	
0.525 131.787 	0 	0 	
0.535 129.819 	0 	0 	
0.545 119.351 	0 	0 	
0.555 88.1723 	0 	0 	
0.565 41.9802 	0 	0 	
0.575 9.31927 	0 	0 	
0.585 0.150611 	0 	0 	
0.595 4.40863e-15 	0 	0 	
0.605 -3.08604e-14 	0 	0 	
0.615 -6.17208e-14 	0 	0 	
0.625 -5.95165e-14 	0 	0 	
0.635 -4.1882e-14 	0 	0 	
0.645 -1.54302e-14 	0 	0 	
0.655 6.61292e-15 	0 	0 	
0.665 -1.54302e-14 	0 	0 	
0.675 -3.74733e-14 	0 	0 	
0.685 -5.00044e-21 	0 	0 	
0.695 3.5269e-14 	0 	0 	
0.705 1.76345e-14 	0 	0 	
0.715 1.32259e-14 	0 	0 	
0.725 4.40863e-14 	0 	0 	
0.735 6.61294e-14 	0 	0 	
0.745 5.51079e-14 	0 	0 	
0.755 2.42475e-14 	0 	0 	
0.765 4.40863e-15 	0 	0 	
0.775 -4.40862e-15 	0 	0 	
0.785 -2.20431e-14 	0 	0 	
0.795 -2.64518e-14 	0 	0 	
0.805 2.2043e-15 	0 	0 	
0.815 2.42475e-14 	-3.42619e-30 	0 	
0.825 1.98389e-14 	0 	0 	
0.835 6.61295e-15 	0 	0 	
0.845 0 	0 	0 	
0.855 0 	0 	0 	
0.865 -1.10216e-14 	0 	0 	
0.875 -1.98388e-14 	0 	0 	
0.885 -4.40863e-15 	0 	0 	
0.895 -4.99989e-21 	0 	0 	
0.905 -2.20432e-14 	0 	0 	
0.915 -3.52691e-14 	0 	0 	
0.925 -2.42475e-14 	0 	0 	
0.935 -4.40864e-15 	0 	0 	
0.945 2.20432e-15 	0 	0 	
0.955 8.81726e-15 	0 	0 	
0.965 3.5269e-14 	0 	0 	
0.975 4.62906e-14 	0 	0 	
0.985 2.42475e-14 	0 	0 	
0.995 4.40863e-15 	0 	0 	
