0.005 -3.06842e-14 	0 	0 	
0.015 -1.0569e-13 	0 	0 	
0.025 1.70468e-14 	0 	0 	
0.035 1.97741e-13 	0 	0 	
0.045 -1.36374e-13 	0 	0 	
0.055 -8.8643e-14 	0 	0 	
0.065 -7.84149e-14 	0 	0 	
0.075 -1.7047e-14 	0 	0 	
0.085 -8.1824e-14 	0 	0 	
0.095 -4.09117e-14 	0 	0 	
0.105 4.09122e-14 	0 	0 	
0.115 -1.0569e-13 	0 	0 	
0.125 -1.19327e-13 	0 	0 	
0.135 -1.70464e-14 	0 	0 	
0.145 -4.43214e-14 	0 	0 	
0.155 1.0228e-13 	0 	0 	
0.165 -2.72748e-14 	0 	0 	
0.175 1.19327e-13 	0 	0 	
0.185 1.77285e-13 	-9.93596e-30 	0 	
0.195 1.32964e-13 	0 	0 	
0.205 3.06841e-14 	0 	0 	
0.215 9.20521e-14 	0 	0 	
0.225 1.19327e-13 	0 	0 	
0.235 1.67057e-13 	0 	0 	
0.245 1.94332e-13 	0 	0 	
0.255 2.04561e-13 	-1.04091e-29 	0 	
0.265 9.2052e-14 	-5.08626e-30 	0 	
0.275 1.43363e-11 	0 	0 	
0.285 3.57289e-09 	0 	0 	
0.295 3.6401e-07 	0 	0 	
0.305 1.89297e-05 	0 	0 	
0.315 0.000546956 	0 	0 	
0.325 0.00901971 	0 	0 	
0.335 0.0897198 	0 	0 	
0.345 0.562463 	0 	0 	
0.355 2.33476 	-4.88096e-30 	0 	
0.365 6.78212 	0 	0 	
0.375 14.8571 	0 	0 	
0.385 26.5344 	0 	0 	
0.395 41.099 	-1.88432e-30 	0 	
0.405 57.6547 	0 	0 	
0.415 75.32 	0 	0 	
0.425 93.1319 	0 	0 	
0.435 109.647 	0 	0 	
0.445 122.383 	0 	0 	
0.455 128.748 	0 	0 	
0.465 130.125 	0 	0 	
0.475 130.188 	0 	0 	
0.485 130.165 	0 	0 	
0.495 130.147 	7.13607e-31 	0 	
0.505 130.133 	0 	0 	
0.515 130.121 	0 	0 	
0.525 130.109 	0 	0 	
0.535 130.095 	0 	0 	
0.545 130.073 	0 	0 	
0.555 130.039 	0 	0 	
0.565 129.989 	0 	0 	
0.575 -924240 	0 	0 	
0.585 -2.35717e+10 	0 	0 	
0.595 -6.95732e+17 	0 	0 	
0.605 4.02707e+19 	0 	0 	
0.615 -8.66167e+23 	0 	0 	
0.625 2.97962e+23 	0 	0 	
0.635 -7.32529e+20 	0 	0 	
0.645 6.81516e+14 	0 	0 	
0.655 3.54636e+09 	0 	0 	
0.665 -63932.3 	0 	0 	
0.675 1.26523 	0 	0 	
0.685 0.0210311 	0 	0 	
0.695 0.000435018 	0 	0 	
0.705 5.75947e-06 	0 	0 	
0.715 4.24999e-08 	0 	0 	
0.725 1.35035e-10 	0 	0 	
0.735 2.50586e-13 	0 	0 	
0.745 -1.02281e-13 	0 	0 	
0.755 2.17346e-13 	0 	0 	
0.765 -2.0456e-14 	0 	0 	
0.775 3.8355e-14 	0 	0 	
0.785 -3.06841e-14 	0 	0 	
0.795 9.71664e-14 	0 	0 	
0.805 -4.34694e-14 	0 	0 	
0.815 -2.55714e-15 	0 	0 	
0.825 5.11401e-14 	0 	0 	
0.835 -4.3469e-14 	0 	0 	
0.845 5.62544e-14 	0 	0 	
0.855 1.73876e-13 	0 	0 	
0.865 1.0228e-14 	0 	0 	
0.875 -8.9495e-14 	0 	0 	
0.885 -2.8127e-14 	0 	0 	
0.895 -9.20525e-14 	0 	0 	
0.905 3.32411e-14 	0 	0 	
0.915 2.55703e-14 	0 	0 	
0.925 -2.557e-14 	0 	0 	
0.935 -6.1368e-14 	0 	0 	
0.945 3.0684e-14 	0 	0 	
0.955 5.114e-15 	0 	0 	
0.965 3.0684e-14 	0 	0 	
0.975 1.27853e-14 	0 	0 	
0.985 -2.55704e-14 	0 	0 	
0.995 -5.88111e-14 	0 	0 	
