0.005 -6.58944e-14 	0 	0 	
0.015 -2.42768e-14 	0 	0 	
0.025 -8.67032e-14 	0 	0 	
0.035 1.90745e-14 	0 	0 	
0.045 7.62986e-14 	0 	0 	
0.055 -1.90747e-14 	0 	0 	
0.065 1.73402e-15 	0 	0 	
0.075 1.30055e-13 	0 	0 	
0.085 -7.28306e-14 	2.02145e-29 	0 	
0.095 -1.76371e-25 	0 	0 	
0.105 1.05778e-13 	0 	0 	
0.115 1.87279e-13 	-1.05886e-29 	0 	
0.125 2.16758e-13 	1.03479e-29 	0 	
0.135 3.64152e-14 	0 	0 	
0.145 1.63002e-13 	0 	0 	
0.155 7.97668e-14 	0 	0 	
0.165 3.81493e-14 	0 	0 	
0.175 1.64736e-13 	0 	0 	
0.185 1.56066e-14 	0 	0 	
0.195 6.93625e-14 	0 	0 	
0.205 7.28304e-14 	0 	0 	
0.215 1.56066e-13 	0 	0 	
0.225 1.73409e-14 	0 	0 	
0.235 1.73383e-15 	0 	0 	
0.245 -1.05778e-13 	0 	0 	
0.255 3.12131e-14 	0 	0 	
0.265 3.46812e-15 	0 	0 	
0.275 5.7831e-12 	0 	0 	
0.285 1.84619e-09 	0 	0 	
0.295 2.29863e-07 	0 	0 	
0.305 1.3734e-05 	0 	0 	
0.315 0.000435805 	0 	0 	
0.325 0.00775511 	0 	0 	
0.335 0.0818467 	0 	0 	
0.345 0.535146 	0 	0 	
0.355 2.27207 	0 	0 	
0.365 6.68241 	0 	0 	
0.375 14.7547 	0 	0 	
0.385 26.4663 	0 	0 	
0.395 41.0841 	0 	0 	
0.405 57.6933 	0 	0 	
0.415 75.4081 	0 	0 	
0.425 93.2633 	0 	0 	
0.435 109.802 	0 	0 	
0.445 122.504 	0 	0 	
0.455 128.795 	0 	0 	
0.465 130.13 	0 	0 	
0.475 130.185 	0 	0 	
0.485 130.16 	0 	0 	
0.495 130.138 	0 	0 	
0.505 130.112 	0 	0 	
0.515 -2.66277e+10 	0 	0 	
0.525 -1.24756e+17 	0 	0 	
0.535 -1.36381e+21 	0 	0 	
0.545 -7.88941e+30 	0 	0 	
0.555 -9.72038e+35 	0 	0 	
0.565 -1.18469e+43 	0 	0 	
0.575 -2.27419e+48 	0 	0 	
0.585 1.92499e+50 	0 	0 	
0.595 -3.72268e+52 	0 	0 	
0.605 -1.68953e+54 	0 	0 	
0.615 5.24219e+57 	0 	0 	
0.625 4.40701e+52 	0 	0 	
0.635 2.01361e+47 	0 	0 	
0.645 3.33589e+32 	0 	0 	
0.655 4.20583e+28 	0 	0 	
0.665 2.00171e+23 	0 	0 	
0.675 3.09196e+11 	0 	0 	
0.685 3531.87 	0 	0 	
0.695 0.000316043 	0 	0 	
0.705 3.60028e-06 	0 	0 	
0.715 2.16308e-08 	0 	0 	
0.725 5.28867e-11 	0 	0 	
0.735 1.62568e-13 	0 	0 	
0.745 7.67323e-14 	0 	0 	
0.755 9.7541e-14 	0 	0 	
0.765 7.02297e-14 	0 	0 	
0.775 1.30051e-14 	0 	0 	
0.785 1.1835e-13 	0 	0 	
0.795 -5.20216e-14 	0 	0 	
0.805 1.04044e-14 	0 	0 	
0.815 2.34098e-14 	0 	0 	
0.825 -2.60111e-14 	0 	0 	
0.835 -2.47102e-14 	0 	0 	
0.845 4.55189e-14 	0 	0 	
0.855 -5.2022e-15 	0 	0 	
0.865 -2.47101e-14 	0 	0 	
0.875 -6.50268e-15 	0 	0 	
0.885 1.82076e-14 	0 	0 	
0.895 2.21094e-14 	0 	0 	
0.905 -1.01442e-13 	0 	0 	
0.915 7.41313e-14 	0 	0 	
0.925 -9.1038e-14 	0 	0 	
0.935 -1.09246e-13 	0 	0 	
0.945 1.1705e-14 	0 	0 	
0.955 -1.9508e-14 	0 	0 	
0.965 1.84677e-13 	0 	0 	
0.975 5.2022e-14 	0 	0 	
0.985 -2.99127e-14 	0 	0 	
0.995 -5.20217e-15 	0 	0 	
