0.005 -7.28306e-14 	0 	0 	
0.015 4.16173e-14 	0 	0 	
0.025 -6.06922e-14 	0 	0 	
0.035 -1.90745e-14 	0 	0 	
0.045 -4.33513e-14 	0 	0 	
0.055 4.33514e-14 	0 	0 	
0.065 3.64152e-14 	0 	0 	
0.075 2.60111e-14 	0 	0 	
0.085 7.80329e-14 	1.68455e-29 	0 	
0.095 -5.89581e-14 	0 	0 	
0.105 1.04044e-14 	0 	0 	
0.115 1.04044e-13 	-8.42273e-30 	0 	
0.125 8.67031e-14 	8.42273e-30 	0 	
0.135 -2.94792e-14 	0 	0 	
0.145 1.24853e-13 	0 	0 	
0.155 1.23118e-13 	0 	0 	
0.165 -5.54899e-14 	0 	0 	
0.175 2.08087e-13 	0 	0 	
0.185 -2.93818e-24 	0 	0 	
0.195 -3.12129e-14 	0 	0 	
0.205 1.35257e-13 	0 	0 	
0.215 5.37558e-14 	0 	0 	
0.225 4.33515e-14 	0 	0 	
0.235 -3.2947e-14 	0 	0 	
0.245 -8.8437e-14 	0 	0 	
0.255 8.84372e-14 	0 	0 	
0.265 -1.05778e-13 	0 	0 	
0.275 -7.80328e-14 	0 	0 	
0.285 8.4969e-14 	0 	0 	
0.295 3.46812e-15 	0 	0 	
0.305 9.53734e-14 	0 	0 	
0.315 2.00596e-10 	0 	0 	
0.325 8.68132e-08 	0 	0 	
0.335 1.08929e-05 	0 	0 	
0.345 0.00054352 	0 	0 	
0.355 0.0127434 	0 	0 	
0.365 0.15527 	0 	0 	
0.375 1.0577 	0 	0 	
0.385 4.35455 	0 	0 	
0.395 11.99 	0 	0 	
0.405 24.667 	0 	0 	
0.415 41.6113 	0 	0 	
0.425 61.443 	0 	0 	
0.435 82.6666 	0 	0 	
0.445 103.346 	0 	0 	
0.455 120.083 	0 	0 	
0.465 128.565 	0 	0 	
0.475 130.155 	0 	0 	
0.485 130.186 	0 	0 	
0.495 130.159 	0 	0 	
0.505 130.136 	0 	0 	
0.515 130.112 	0 	0 	
0.525 130.076 	0 	0 	
0.535 130.01 	0 	0 	
0.545 129.901 	0 	0 	
0.555 129.787 	0 	0 	
0.565 -5.92127e+06 	0 	0 	
0.575 -7.0665e+09 	0 	0 	
0.585 -6.93678e+16 	0 	0 	
0.595 3.18714e+13 	0 	0 	
0.605 3.74015e+21 	0 	0 	
0.615 4.09275e+12 	0 	0 	
0.625 9.57549e+08 	0 	0 	
0.635 264287 	0 	0 	
0.645 0.669191 	0 	0 	
0.655 0.0139869 	0 	0 	
0.665 0.000174054 	0 	0 	
0.675 9.77173e-07 	0 	0 	
0.685 1.71059e-09 	0 	0 	
0.695 4.73399e-13 	0 	0 	
0.705 -1.56066e-14 	0 	0 	
0.715 2.21093e-14 	0 	0 	
0.725 1.49562e-13 	0 	0 	
0.735 3.38143e-14 	0 	0 	
0.745 2.60082e-15 	0 	0 	
0.755 4.0317e-14 	0 	0 	
0.765 1.69072e-14 	0 	0 	
0.775 9.1038e-14 	0 	0 	
0.785 -4.03167e-14 	0 	0 	
0.795 -5.20218e-15 	0 	0 	
0.805 5.20218e-14 	0 	0 	
0.815 7.02294e-14 	0 	0 	
0.825 2.60109e-14 	0 	0 	
0.835 2.60105e-14 	0 	0 	
0.845 -2.60109e-15 	0 	0 	
0.855 7.9333e-14 	0 	0 	
0.865 -7.67321e-14 	0 	0 	
0.875 6.50278e-15 	0 	0 	
0.885 1.64606e-29 	0 	0 	
0.895 -1.49563e-13 	0 	0 	
0.905 2.341e-14 	0 	0 	
0.915 2.34098e-14 	0 	0 	
0.925 -8.45355e-14 	0 	0 	
0.935 -6.50276e-15 	0 	0 	
0.945 -2.34098e-14 	0 	0 	
0.955 5.07214e-14 	0 	0 	
0.965 -5.85249e-14 	0 	0 	
0.975 1.23552e-13 	0 	0 	
0.985 5.98252e-14 	0 	0 	
0.995 -7.02296e-14 	0 	0 	
