0.005 -1.23118e-13 	0 	0 	
0.015 9.36393e-14 	0 	0 	
0.025 -2.60109e-14 	0 	0 	
0.035 2.42769e-14 	0 	0 	
0.045 6.93619e-15 	0 	0 	
0.055 4.85535e-14 	0 	0 	
0.065 6.93625e-14 	0 	0 	
0.075 1.73409e-14 	0 	0 	
0.085 3.4681e-14 	1.78081e-29 	0 	
0.095 3.46815e-14 	0 	0 	
0.105 1.0231e-13 	0 	0 	
0.115 3.46815e-14 	-9.14466e-30 	0 	
0.125 1.99417e-13 	9.14466e-30 	0 	
0.135 3.64153e-14 	0 	0 	
0.145 1.07512e-13 	0 	0 	
0.155 2.01151e-13 	0 	0 	
0.165 3.29473e-14 	0 	0 	
0.175 6.06921e-14 	0 	0 	
0.185 1.17916e-13 	0 	0 	
0.195 2.9479e-13 	0 	0 	
0.205 1.68204e-13 	0 	0 	
0.215 6.41602e-14 	0 	0 	
0.225 -2.16758e-13 	0 	0 	
0.235 -5.20235e-15 	0 	0 	
0.245 -2.77448e-14 	0 	0 	
0.255 -7.62982e-14 	0 	0 	
0.265 -6.58944e-14 	0 	0 	
0.275 -1.47395e-13 	0 	0 	
0.285 -5.3756e-14 	0 	0 	
0.295 -2.72248e-13 	0 	0 	
0.305 1.77186e-10 	0 	0 	
0.315 5.99091e-08 	0 	0 	
0.325 6.69114e-06 	0 	0 	
0.335 0.000318878 	0 	0 	
0.345 0.00747987 	0 	0 	
0.355 0.0943803 	0 	0 	
0.365 0.682839 	0 	0 	
0.375 3.02242 	0 	0 	
0.385 8.91681 	0 	0 	
0.395 19.3942 	0 	0 	
0.405 34.108 	0 	0 	
0.415 51.9406 	0 	0 	
0.425 71.6323 	0 	0 	
0.435 91.817 	0 	0 	
0.445 110.447 	0 	0 	
0.455 123.962 	0 	0 	
0.465 129.458 	0 	0 	
0.475 130.188 	0 	0 	
0.485 130.178 	0 	0 	
0.495 130.153 	0 	0 	
0.505 130.131 	0 	0 	
0.515 130.104 	0 	0 	
0.525 130.059 	0 	0 	
0.535 129.977 	0 	0 	
0.545 -382815 	0 	0 	
0.555 4.13447e+12 	0 	0 	
0.565 -5.48833e+15 	0 	0 	
0.575 -1.15579e+19 	0 	0 	
0.585 -6.57763e+23 	0 	0 	
0.595 -4.47828e+27 	0 	0 	
0.605 1.2572e+29 	0 	0 	
0.615 2.59552e+26 	0 	0 	
0.625 8.75056e+15 	0 	0 	
0.635 3.08265e+13 	0 	0 	
0.645 2.79858e+08 	0 	0 	
0.655 0.437223 	0 	0 	
0.665 0.0085552 	0 	0 	
0.675 0.000112197 	0 	0 	
0.685 7.10502e-07 	0 	0 	
0.695 1.59864e-09 	0 	0 	
0.705 8.3755e-13 	0 	0 	
0.715 -1.82076e-14 	0 	0 	
0.725 1.30055e-14 	0 	0 	
0.735 1.32223e-24 	0 	0 	
0.745 -1.69074e-14 	0 	0 	
0.755 8.58357e-14 	0 	0 	
0.765 -4.42182e-14 	0 	0 	
0.775 -3.90164e-14 	0 	0 	
0.785 7.02292e-14 	0 	0 	
0.795 -6.76286e-14 	0 	0 	
0.805 -2.341e-14 	0 	0 	
0.815 -1.0404e-14 	0 	0 	
0.825 1.4306e-13 	0 	0 	
0.835 -3.25139e-14 	0 	0 	
0.845 -6.11253e-14 	0 	0 	
0.855 1.04043e-14 	0 	0 	
0.865 -5.72241e-14 	0 	0 	
0.875 -4.55192e-14 	0 	0 	
0.885 -5.85243e-14 	0 	0 	
0.895 -2.73115e-14 	0 	0 	
0.905 -3.90163e-15 	0 	0 	
0.915 3.64155e-14 	0 	0 	
0.925 -2.60109e-14 	0 	0 	
0.935 3.64152e-14 	0 	0 	
0.945 4.03171e-14 	0 	0 	
0.955 8.97375e-14 	0 	0 	
0.965 2.47105e-14 	0 	0 	
0.975 5.85246e-14 	0 	0 	
0.985 4.42184e-14 	0 	0 	
0.995 -2.21093e-14 	0 	0 	
