0.005 1.6165e-14 	0 	0 	
0.015 1.13155e-13 	0 	0 	
0.025 8.89075e-14 	0 	0 	
0.035 -8.08263e-15 	0 	0 	
0.045 4.04125e-14 	0 	0 	
0.055 -8.08251e-15 	0 	0 	
0.065 1.13155e-13 	0 	0 	
0.075 3.23301e-14 	0 	0 	
0.085 -8.08256e-15 	0 	0 	
0.095 8.8907e-14 	0 	0 	
0.105 3.23299e-14 	0 	0 	
0.115 4.84946e-14 	0 	0 	
0.125 1.13155e-13 	0 	0 	
0.135 4.84951e-14 	0 	0 	
0.145 1.6165e-13 	0 	0 	
0.155 -9.699e-14 	0 	0 	
0.165 -4.84951e-14 	0 	0 	
0.175 1.05072e-13 	0 	0 	
0.185 4.84951e-14 	0 	0 	
0.195 5.65775e-14 	0 	0 	
0.205 1.6165e-14 	0 	0 	
0.215 -8.08266e-15 	0 	0 	
0.225 -2.42475e-14 	0 	0 	
0.235 2.42475e-14 	0 	0 	
0.245 -5.65774e-14 	0 	0 	
0.255 -4.04125e-14 	0 	0 	
0.265 7.2742e-14 	0 	0 	
0.275 1.10973e-11 	0 	0 	
0.285 2.22256e-09 	0 	0 	
0.295 2.13848e-07 	0 	0 	
0.305 1.05171e-05 	0 	0 	
0.315 0.000298722 	8.74905e-30 	0 	
0.325 0.00504507 	0 	0 	
0.335 0.0534514 	-8.07743e-30 	0 	
0.345 0.363052 	0 	0 	
0.355 1.64002 	-4.28457e-30 	0 	
0.365 5.16265 	1.59381e-29 	0 	
0.375 12.1202 	0 	0 	
0.385 22.8298 	2.64042e-30 	0 	
0.395 36.7611 	0 	0 	
0.405 53.0327 	3.68772e-30 	0 	
0.415 70.728 	0 	0 	
0.425 88.8756 	-5.90009e-31 	0 	
0.435 106.109 	0 	0 	
0.445 120.089 	-2.28659e-30 	0 	
0.455 127.938 	-3.02351e-30 	0 	
0.465 130.039 	-3.38025e-30 	0 	
0.475 130.194 	0 	0 	
0.485 130.172 	0 	0 	
0.495 130.153 	-1.269e-30 	0 	
0.505 130.139 	-1.01552e-30 	0 	
0.515 130.126 	0 	0 	
0.525 130.117 	0 	0 	
0.535 130.108 	0 	0 	
0.545 130.1 	0 	0 	
0.555 130.092 	0 	0 	
0.565 130.085 	0 	0 	
0.575 130.077 	0 	0 	
0.585 130.069 	0 	0 	
0.595 130.059 	0 	0 	
0.605 130.045 	0 	0 	
0.615 129.972 	0 	0 	
0.625 129.446 	0 	0 	
0.635 125.994 	0 	0 	
0.645 107.92 	0 	0 	
0.655 50.4847 	0 	0 	
0.665 5.48039 	0 	0 	
0.675 0.253127 	0 	0 	
0.685 0.0085407 	0 	0 	
0.695 0.000197267 	0 	0 	
0.705 2.92961e-06 	0 	0 	
0.715 2.36647e-08 	0 	0 	
0.725 9.71474e-11 	0 	0 	
0.735 1.39423e-13 	0 	0 	
0.745 -9.0928e-14 	0 	0 	
0.755 4.8495e-14 	0 	0 	
0.765 -1.81856e-14 	0 	0 	
0.775 8.48662e-14 	0 	0 	
0.785 -1.21238e-14 	0 	0 	
0.795 3.03094e-14 	0 	0 	
0.805 1.09114e-13 	0 	0 	
0.815 -2.42474e-14 	0 	0 	
0.825 4.24332e-14 	0 	0 	
0.835 1.21238e-14 	0 	0 	
0.845 4.2433e-14 	0 	0 	
0.855 4.84951e-14 	0 	0 	
0.865 4.40721e-25 	0 	0 	
0.875 3.0309e-14 	0 	0 	
0.885 5.45568e-14 	0 	0 	
0.895 -2.42471e-14 	0 	0 	
0.905 -6.66806e-14 	0 	0 	
0.915 -3.63712e-14 	0 	0 	
0.925 -8.4866e-14 	0 	0 	
0.935 -1.21237e-14 	0 	0 	
0.945 -7.88044e-14 	0 	0 	
0.955 -4.24332e-14 	0 	0 	
0.965 -3.63714e-14 	0 	0 	
0.975 6.06186e-14 	0 	0 	
0.985 -1.09114e-13 	0 	0 	
0.995 -4.8495e-14 	0 	0 	
