0.005 0 	0 	0 	
0.015 0 	0 	0 	
0.025 5.87817e-15 	0 	0 	
0.035 2.05736e-14 	0 	0 	
0.045 2.93908e-14 	0 	0 	
0.055 2.64518e-14 	0 	0 	
0.065 1.46955e-14 	0 	0 	
0.075 -2.93907e-14 	0 	0 	
0.085 -6.46596e-14 	0 	0 	
0.095 -3.23298e-14 	0 	0 	
0.105 1.17563e-14 	0 	0 	
0.115 4.40863e-14 	0 	0 	
0.125 6.17208e-14 	0 	0 	
0.135 2.64518e-14 	0 	0 	
0.145 -2.93908e-14 	-8.15761e-31 	0 	
0.155 -6.46599e-14 	0 	0 	
0.165 -7.05381e-14 	0 	0 	
0.175 -5.58427e-14 	0 	0 	
0.185 -2.05736e-14 	0 	0 	
0.195 3.82081e-14 	0 	0 	
0.205 5.87817e-14 	0 	0 	
0.215 2.64518e-14 	0 	0 	
0.225 7.30587e-26 	0 	0 	
0.235 -5.87815e-15 	1.63152e-30 	0 	
0.245 -5.87815e-15 	0 	0 	
0.255 2.49999e-20 	0 	0 	
0.265 8.81727e-15 	0 	0 	
0.275 5.87818e-15 	0 	0 	
0.285 0 	0 	0 	
0.295 0 	0 	0 	
0.305 0 	0 	0 	
0.315 -2.93907e-15 	0 	0 	
0.325 2.9391e-15 	0 	0 	
0.335 8.81725e-15 	0 	0 	
0.345 -2.9391e-15 	0 	0 	
0.355 -5.87818e-15 	0 	0 	
0.365 0 	0 	0 	
0.375 -5.87817e-15 	0 	0 	
0.385 -1.76345e-14 	0 	0 	
0.395 -2.05736e-14 	0 	0 	
0.405 2.9391e-15 	0 	0 	
0.415 2.64518e-14 	0 	0 	
0.425 1.46954e-14 	0 	0 	
0.435 0 	0 	0 	
0.445 -2.93907e-15 	0 	0 	
0.455 -2.93908e-15 	0 	0 	
0.465 1.1145 	0 	0 	
0.475 12.7351 	0 	0 	
0.485 47.6082 	0 	0 	
0.495 97.5691 	0 	0 	
0.505 123.583 	0 	0 	
0.515 98.9018 	0 	0 	
0.525 48.3881 	0 	0 	
0.535 11.9778 	0 	0 	
0.545 0.48974 	0 	0 	
0.555 0 	0 	0 	
0.565 -6.61295e-15 	0 	0 	
0.575 -6.61295e-15 	0 	0 	
0.585 6.61295e-15 	0 	0 	
0.595 6.61295e-15 	0 	0 	
0.605 -6.61295e-15 	0 	0 	
0.615 -1.76345e-14 	0 	0 	
0.625 -1.98388e-14 	0 	0 	
0.635 -8.81725e-15 	0 	0 	
0.645 1.54302e-14 	0 	0 	
0.655 2.42475e-14 	0 	0 	
0.665 -1.54302e-14 	0 	0 	
0.675 -5.51079e-14 	0 	0 	
0.685 -3.30647e-14 	0 	0 	
0.695 2.42475e-14 	0 	0 	
0.705 5.29036e-14 	0 	0 	
0.715 3.30647e-14 	0 	0 	
0.725 6.61295e-15 	0 	0 	
0.735 0 	0 	0 	
0.745 0 	0 	0 	
0.755 0 	0 	0 	
0.765 0 	0 	0 	
0.775 -4.40862e-15 	0 	0 	
0.785 -2.20431e-14 	0 	0 	
0.795 -2.86561e-14 	0 	0 	
0.805 -2.00003e-20 	0 	0 	
0.815 2.64518e-14 	-1.22364e-30 	0 	
0.825 2.20432e-14 	0 	0 	
0.835 6.61295e-15 	0 	0 	
0.845 0 	0 	0 	
0.855 0 	0 	0 	
0.865 -8.81725e-15 	0 	0 	
0.875 -1.10216e-14 	0 	0 	
0.885 6.61296e-15 	0 	0 	
0.895 1.10216e-14 	0 	0 	
0.905 -2.20431e-15 	0 	0 	
0.915 -1.98388e-14 	0 	0 	
0.925 -2.64518e-14 	0 	0 	
0.935 2.20432e-15 	0 	0 	
0.945 2.86561e-14 	0 	0 	
0.955 1.76345e-14 	0 	0 	
0.965 2.20432e-15 	0 	0 	
0.975 0 	0 	0 	
0.985 0 	0 	0 	
0.995 0 	0 	0 	
