0.005 -7.34772e-14 	0 	0 	
0.015 -1.46957e-14 	0 	0 	
0.025 -1.46954e-14 	0 	0 	
0.035 -5.87815e-14 	0 	0 	
0.045 -7.3477e-14 	0 	0 	
0.055 -7.34772e-14 	0 	0 	
0.065 2.93905e-14 	0 	0 	
0.075 -1.46953e-14 	0 	0 	
0.085 -2.50037e-20 	0 	0 	
0.095 2.93908e-14 	0 	0 	
0.105 1.02868e-13 	0 	0 	
0.115 1.02868e-13 	0 	0 	
0.125 1.46955e-13 	0 	0 	
0.135 1.6165e-13 	0 	0 	
0.145 1.76345e-13 	0 	0 	
0.155 1.6165e-13 	0 	0 	
0.165 2.20432e-13 	0 	0 	
0.175 2.93909e-13 	0 	0 	
0.185 1.32259e-13 	0 	0 	
0.195 -4.40863e-14 	0 	0 	
0.205 -5.87817e-14 	0 	0 	
0.215 -4.40862e-14 	0 	0 	
0.225 -1.46955e-13 	0 	0 	
0.235 -5.87818e-14 	0 	0 	
0.245 -1.6165e-13 	0 	0 	
0.255 1.9104e-13 	0 	0 	
0.265 5.20806e-11 	0 	0 	
0.275 4.80341e-09 	0 	0 	
0.285 2.60148e-07 	0 	0 	
0.295 8.76167e-06 	0 	0 	
0.305 0.000190735 	0 	0 	
0.315 0.00276027 	0 	0 	
0.325 0.0271074 	0 	0 	
0.335 0.183581 	0 	0 	
0.345 0.872074 	0 	0 	
0.355 2.9844 	0 	0 	
0.365 7.68223 	0 	0 	
0.375 15.7295 	0 	0 	
0.385 27.1089 	0 	0 	
0.395 41.2329 	0 	0 	
0.405 57.3134 	0 	0 	
0.415 74.5334 	0 	0 	
0.425 91.9656 	0 	0 	
0.435 108.244 	0 	0 	
0.445 121.113 	0 	0 	
0.455 128.143 	0 	0 	
0.465 130.042 	0 	0 	
0.475 130.198 	0 	0 	
0.485 130.177 	0 	0 	
0.495 130.158 	0 	0 	
0.505 130.143 	0 	0 	
0.515 130.13 	0 	0 	
0.525 130.12 	0 	0 	
0.535 130.111 	0 	0 	
0.545 130.102 	0 	0 	
0.555 130.095 	0 	0 	
0.565 130.087 	0 	0 	
0.575 130.079 	0 	0 	
0.585 130.071 	0 	0 	
0.595 130.061 	0 	0 	
0.605 130.048 	0 	0 	
0.615 129.995 	0 	0 	
0.625 129.654 	0 	0 	
0.635 127.577 	0 	0 	
0.645 117.158 	0 	0 	
0.655 79.1458 	0 	0 	
0.665 20.2868 	0 	0 	
0.675 1.74662 	0 	0 	
0.685 0.100144 	0 	0 	
0.695 0.00444485 	0 	0 	
0.705 0.000145874 	0 	0 	
0.715 3.33512e-06 	0 	0 	
0.725 4.99675e-08 	0 	0 	
0.735 4.57693e-10 	0 	0 	
0.745 2.19329e-12 	0 	0 	
0.755 -7.7151e-14 	0 	0 	
0.765 -1.54302e-13 	0 	0 	
0.775 -1.98388e-13 	0 	0 	
0.785 -1.76345e-13 	0 	0 	
0.795 -6.61294e-14 	0 	0 	
0.805 -7.7151e-14 	0 	0 	
0.815 -8.81727e-14 	0 	0 	
0.825 -8.81725e-14 	0 	0 	
0.835 -1.10214e-14 	0 	0 	
0.845 1.10216e-14 	0 	0 	
0.855 4.40863e-14 	0 	0 	
0.865 -1.35824e-24 	0 	0 	
0.875 2.50027e-20 	0 	0 	
0.885 6.61295e-14 	0 	0 	
0.895 7.7151e-14 	0 	0 	
0.905 1.10215e-13 	0 	0 	
0.915 3.30647e-14 	0 	0 	
0.925 6.61295e-14 	0 	0 	
0.935 1.4328e-13 	0 	0 	
0.945 4.40864e-14 	0 	0 	
0.955 8.81726e-14 	0 	0 	
0.965 6.61295e-14 	0 	0 	
0.975 7.71509e-14 	0 	0 	
0.985 -1.10217e-14 	0 	0 	
0.995 5.51078e-14 	0 	0 	
