0.005 5.49242e-14 	0 	0 	
0.015 -8.44988e-15 	0 	0 	
0.025 1.17547e-25 	0 	0 	
0.035 1.52098e-13 	0 	0 	
0.045 1.68998e-14 	0 	0 	
0.055 4.22494e-14 	0 	0 	
0.065 -5.49242e-14 	-4.69063e-30 	0 	
0.075 -3.37995e-14 	0 	0 	
0.085 -2.07022e-13 	0 	0 	
0.095 2.11247e-14 	0 	0 	
0.105 -9.71736e-14 	0 	0 	
0.115 -2.53496e-14 	0 	0 	
0.125 -8.02738e-14 	0 	0 	
0.135 4.22494e-14 	0 	0 	
0.145 -4.22494e-14 	0 	0 	
0.155 1.82934e-28 	0 	0 	
0.165 1.68997e-14 	0 	0 	
0.175 5.91491e-14 	0 	0 	
0.185 -5.06992e-14 	0 	0 	
0.195 6.33741e-14 	0 	0 	
0.205 5.49242e-14 	0 	0 	
0.215 6.7599e-14 	0 	0 	
0.225 -8.44987e-15 	0 	0 	
0.235 -8.44987e-15 	0 	0 	
0.245 2.95746e-14 	0 	0 	
0.255 -5.49242e-14 	0 	0 	
0.265 2.11247e-14 	0 	0 	
0.275 -5.49242e-14 	0 	0 	
0.285 2.11247e-14 	0 	0 	
0.295 1.60548e-13 	0 	0 	
0.305 5.91491e-14 	0 	0 	
0.315 8.44987e-15 	0 	0 	
0.325 1.43648e-13 	0 	0 	
0.335 -6.33741e-14 	0 	0 	
0.345 -1.26748e-14 	0 	0 	
0.355 -1.26748e-13 	0 	0 	
0.365 -2.95746e-14 	0 	0 	
0.375 6.4495e-09 	0 	0 	
0.385 8.60515e-06 	0 	0 	
0.395 0.00125572 	0 	0 	
0.405 0.0506446 	0 	0 	
0.415 0.74642 	0 	0 	
0.425 4.76055 	0 	0 	
0.435 16.3311 	0 	0 	
0.445 37.0711 	1.30695e-30 	0 	
0.455 64.7955 	0 	0 	
0.465 95.1515 	0 	0 	
0.475 120.189 	0 	0 	
0.485 129.64 	7.06344e-31 	0 	
0.495 130.205 	0 	0 	
0.505 130.169 	0 	0 	
0.515 130.14 	1.80634e-31 	0 	
0.525 130.116 	0 	0 	
0.535 130.094 	0 	0 	
0.545 130.064 	0 	0 	
0.555 129.882 	-3.40368e-30 	0 	
0.565 128.325 	0 	0 	
0.575 110.187 	0 	0 	
0.585 43.3633 	0 	0 	
0.595 2.38592 	0 	0 	
0.605 0.0387205 	0 	0 	
0.615 0.000223131 	0 	0 	
0.625 1.94618e-07 	0 	0 	
0.635 5.38681e-14 	0 	0 	
0.645 -6.65425e-14 	0 	0 	
0.655 -9.50609e-14 	0 	0 	
0.665 4.11929e-14 	0 	0 	
0.675 -6.3374e-15 	0 	0 	
0.685 1.61604e-13 	0 	0 	
0.695 3.16862e-15 	0 	0 	
0.705 2.53494e-14 	0 	0 	
0.715 7.60485e-14 	0 	0 	
0.725 -6.97115e-14 	3.86977e-30 	0 	
0.735 -4.43614e-14 	0 	0 	
0.745 -4.11932e-14 	0 	0 	
0.755 2.53496e-14 	0 	0 	
0.765 -3.48555e-14 	-1.12575e-29 	0 	
0.775 -6.97116e-14 	0 	0 	
0.785 -6.33741e-14 	0 	0 	
0.795 5.38681e-14 	0 	0 	
0.805 1.45761e-13 	0 	0 	
0.815 6.97115e-14 	5.27696e-30 	0 	
0.825 4.11936e-14 	2.81437e-30 	0 	
0.835 5.06994e-14 	0 	0 	
0.845 -1.26746e-14 	0 	0 	
0.855 -5.06992e-14 	0 	0 	
0.865 -6.02051e-14 	0 	0 	
0.875 -8.23858e-14 	0 	0 	
0.885 -3.48557e-14 	0 	0 	
0.895 -1.12575e-29 	0 	0 	
0.905 -5.70367e-14 	0 	0 	
0.915 -4.4362e-14 	0 	0 	
0.925 -9.5059e-15 	0 	0 	
0.935 3.16869e-14 	0 	0 	
0.945 1.14073e-13 	0 	0 	
0.955 -8.87237e-14 	0 	0 	
0.965 -8.55549e-14 	0 	0 	
0.975 9.50613e-14 	0 	0 	
0.985 1.26746e-14 	0 	0 	
0.995 -1.26748e-14 	0 	0 	
