0.005 6.31089e-30 	0 	0 	
0.015 9.71664e-14 	0 	0 	
0.025 8.37639e-14 	0 	0 	
0.035 -3.35058e-15 	0 	0 	
0.045 2.17786e-14 	0 	0 	
0.055 1.17269e-14 	0 	0 	
0.065 1.05543e-13 	0 	0 	
0.075 8.37645e-15 	0 	0 	
0.085 -6.7011e-15 	0 	0 	
0.095 -3.35054e-14 	0 	0 	
0.105 -2.84797e-14 	0 	0 	
0.115 -7.37124e-14 	0 	0 	
0.125 2.51294e-14 	0 	0 	
0.135 -8.87896e-14 	0 	0 	
0.145 -1.89307e-13 	0 	0 	
0.155 1.1727e-14 	0 	0 	
0.165 6.36605e-14 	0 	0 	
0.175 -8.37642e-14 	0 	0 	
0.185 1.47425e-13 	0 	0 	
0.195 1.18945e-13 	0 	0 	
0.205 -4.35571e-14 	0 	0 	
0.215 3.68562e-14 	0 	0 	
0.225 -8.37642e-14 	0 	0 	
0.235 1.32347e-13 	0 	0 	
0.245 2.01031e-14 	0 	0 	
0.255 3.68563e-14 	0 	0 	
0.265 2.86473e-13 	0 	0 	
0.275 1.67529e-14 	0 	0 	
0.285 -8.37614e-15 	0 	0 	
0.295 5.69594e-14 	0 	0 	
0.305 5.69593e-14 	0 	0 	
0.315 -1.17272e-14 	0 	0 	
0.325 -3.35056e-14 	0 	0 	
0.335 -1.25646e-13 	0 	0 	
0.345 -6.70114e-14 	0 	0 	
0.355 -5.36089e-14 	0 	0 	
0.365 -9.21406e-14 	0 	0 	
0.375 -1.75904e-13 	0 	0 	
0.385 1.15769e-08 	0 	0 	
0.395 2.02704e-05 	0 	0 	
0.405 0.0031903 	0 	0 	
0.415 0.121858 	0 	0 	
0.425 1.52921 	0 	0 	
0.435 8.3171 	0 	0 	
0.445 25.1025 	0 	0 	
0.455 51.7733 	0 	0 	
0.465 84.2745 	1.21937e-30 	0 	
0.475 114.547 	0 	0 	
0.485 128.96 	0 	0 	
0.495 130.21 	0 	0 	
0.505 130.172 	0 	0 	
0.515 130.139 	0 	0 	
0.525 130.111 	0 	0 	
0.535 130.081 	0 	0 	
0.545 129.937 	0 	0 	
0.555 128.293 	0 	0 	
0.565 113.5 	0 	0 	
0.575 48.9051 	0 	0 	
0.585 2.96081 	0 	0 	
0.595 0.0418594 	0 	0 	
0.605 0.000172939 	0 	0 	
0.615 6.99228e-08 	0 	0 	
0.625 -8.79521e-14 	0 	0 	
0.635 7.28748e-14 	0 	0 	
0.645 -1.50774e-14 	0 	0 	
0.655 3.76925e-15 	0 	0 	
0.665 6.91054e-14 	0 	0 	
0.675 -3.14115e-14 	0 	0 	
0.685 -8.04137e-14 	0 	0 	
0.695 -1.38211e-13 	0 	0 	
0.705 -2.51293e-14 	0 	0 	
0.715 -7.16184e-14 	0 	0 	
0.725 -3.76939e-14 	0 	0 	
0.735 9.54907e-14 	0 	0 	
0.745 -4.9002e-14 	0 	0 	
0.755 3.51808e-14 	0 	0 	
0.765 1.24389e-13 	0 	0 	
0.775 6.91052e-14 	0 	0 	
0.785 5.02585e-15 	0 	0 	
0.795 1.25647e-14 	0 	0 	
0.805 -1.00517e-14 	0 	0 	
0.815 -2.26163e-14 	0 	0 	
0.825 1.88469e-14 	0 	0 	
0.835 -7.41312e-14 	0 	0 	
0.845 1.38209e-14 	0 	0 	
0.855 8.79525e-15 	0 	0 	
0.865 -3.89504e-14 	0 	0 	
0.875 2.51295e-14 	0 	0 	
0.885 7.53875e-14 	0 	0 	
0.895 6.031e-14 	0 	0 	
0.905 -2.7642e-14 	0 	0 	
0.915 2.26163e-14 	0 	0 	
0.925 -6.2823e-15 	0 	0 	
0.935 -6.5336e-14 	0 	0 	
0.945 -1.88467e-14 	0 	0 	
0.955 6.91051e-14 	0 	0 	
0.965 -1.21877e-13 	0 	0 	
0.975 -7.53877e-14 	0 	0 	
0.985 -9.17213e-14 	0 	0 	
0.995 -7.79005e-14 	0 	0 	
