0.005 9.68346e-14 	0 	0 	
0.015 -9.54898e-14 	0 	0 	
0.025 6.3884e-14 	0 	0 	
0.035 -6.7246e-16 	0 	0 	
0.045 5.85043e-14 	0 	0 	
0.055 9.07826e-14 	0 	0 	
0.065 4.90899e-14 	0 	0 	
0.075 -6.05217e-14 	0 	0 	
0.085 -9.75071e-14 	0 	0 	
0.095 -2.35362e-14 	0 	0 	
0.105 -1.38527e-13 	0 	0 	
0.115 -7.39709e-15 	7.69915e-30 	0 	
0.125 -8.40579e-14 	0 	0 	
0.135 -7.39714e-15 	0 	0 	
0.145 -1.91652e-13 	0 	0 	
0.155 -6.65739e-14 	0 	0 	
0.165 4.97623e-14 	0 	0 	
0.175 -2.35364e-14 	0 	0 	
0.185 3.36212e-15 	0 	0 	
0.195 -9.81794e-14 	0 	0 	
0.205 7.39697e-15 	0 	0 	
0.215 -1.34493e-13 	0 	0 	
0.225 -5.71595e-14 	0 	0 	
0.235 4.23652e-14 	0 	0 	
0.245 9.21275e-14 	0 	0 	
0.255 4.70724e-15 	0 	0 	
0.265 6.5229e-14 	0 	0 	
0.275 1.68115e-14 	0 	0 	
0.285 6.11938e-14 	0 	0 	
0.295 -1.49287e-13 	0 	0 	
0.305 4.90899e-14 	0 	0 	
0.315 3.36231e-14 	0 	0 	
0.325 1.3113e-13 	0 	0 	
0.335 1.77207e-11 	0 	0 	
0.345 2.61286e-08 	0 	0 	
0.355 5.94962e-06 	0 	0 	
0.365 0.000464437 	0 	0 	
0.375 0.0143763 	0 	0 	
0.385 0.202626 	0 	0 	
0.395 1.4739 	0 	0 	
0.405 6.16831 	0 	0 	
0.415 16.6706 	0 	0 	
0.425 33.3797 	0 	0 	
0.435 54.9017 	0 	0 	
0.445 79.0833 	0 	0 	
0.455 103.049 	0 	0 	
0.465 121.716 	0 	0 	
0.475 129.373 	0 	0 	
0.485 130.201 	0 	0 	
0.495 130.179 	0 	0 	
0.505 130.154 	0 	0 	
0.515 130.134 	0 	0 	
0.525 130.117 	0 	0 	
0.535 130.102 	0 	0 	
0.545 130.089 	0 	0 	
0.555 130.074 	0 	0 	
0.565 130.052 	0 	0 	
0.575 129.911 	0 	0 	
0.585 128.431 	0 	0 	
0.595 122.023 	0 	0 	
0.605 79.7588 	0 	0 	
0.615 12.1996 	0 	0 	
0.625 0.442823 	0 	0 	
0.635 0.00806927 	0 	0 	
0.645 6.87882e-05 	0 	0 	
0.655 2.24335e-07 	0 	0 	
0.665 1.16768e-10 	0 	0 	
0.675 4.28694e-14 	0 	0 	
0.685 -9.07821e-15 	0 	0 	
0.695 4.4887e-14 	0 	0 	
0.705 -1.96695e-14 	0 	0 	
0.715 -7.26261e-14 	0 	0 	
0.725 -6.05214e-14 	0 	0 	
0.735 -4.38782e-14 	0 	0 	
0.745 -4.74085e-14 	0 	0 	
0.755 -5.79998e-14 	0 	0 	
0.765 -9.02782e-14 	0 	0 	
0.775 -6.55651e-14 	0 	0 	
0.785 -7.81736e-14 	0 	0 	
0.795 -1.96695e-14 	0 	0 	
0.805 1.96695e-14 	0 	0 	
0.815 6.65742e-14 	0 	0 	
0.825 -2.0426e-13 	0 	0 	
0.835 2.87478e-14 	0 	0 	
0.845 9.98609e-14 	0 	0 	
0.855 4.43823e-14 	0 	0 	
0.865 8.12e-14 	0 	0 	
0.875 1.51304e-13 	0 	0 	
0.885 8.67476e-14 	0 	0 	
0.895 -1.15496e-13 	0 	0 	
0.905 1.00891e-15 	0 	0 	
0.915 -6.05224e-15 	0 	0 	
0.925 -8.57391e-14 	0 	0 	
0.935 7.06061e-15 	0 	0 	
0.945 -4.03453e-15 	0 	0 	
0.955 -2.6226e-14 	0 	0 	
0.965 -2.01739e-15 	0 	0 	
0.975 -7.06088e-14 	0 	0 	
0.985 1.46259e-14 	0 	0 	
0.995 -5.09388e-14 	0 	0 	
