0.005 0 	0 	0 	
0.015 5.87817e-15 	0 	0 	
0.025 2.64518e-14 	0 	0 	
0.035 5.29035e-14 	0 	0 	
0.045 5.58427e-14 	0 	0 	
0.055 2.35127e-14 	0 	0 	
0.065 -1.46954e-14 	0 	0 	
0.075 -4.70254e-14 	0 	0 	
0.085 -4.99645e-14 	0 	0 	
0.095 8.81725e-15 	0 	0 	
0.105 5.58426e-14 	0 	0 	
0.115 4.40863e-14 	0 	0 	
0.125 2.05736e-14 	0 	0 	
0.135 -2.93908e-14 	0 	0 	
0.145 -9.11116e-14 	-1.46837e-30 	0 	
0.155 -9.40507e-14 	0 	0 	
0.165 -7.34772e-14 	0 	0 	
0.175 -5.87818e-14 	0 	0 	
0.185 -2.64518e-14 	0 	0 	
0.195 1.76345e-14 	0 	0 	
0.205 4.70254e-14 	0 	0 	
0.215 3.5269e-14 	0 	0 	
0.225 2.64518e-14 	0 	0 	
0.235 3.52691e-14 	1.30522e-30 	0 	
0.245 2.05736e-14 	0 	0 	
0.255 3.23299e-14 	0 	0 	
0.265 3.32118e-13 	0 	0 	
0.275 3.77378e-12 	0 	0 	
0.285 4.04623e-11 	0 	0 	
0.295 3.96403e-10 	0 	0 	
0.305 3.55533e-09 	0 	0 	
0.315 2.92445e-08 	0 	0 	
0.325 2.2083e-07 	0 	0 	
0.335 1.53145e-06 	0 	0 	
0.345 9.75272e-06 	0 	0 	
0.355 5.69933e-05 	0 	0 	
0.365 0.000305245 	0 	0 	
0.375 0.00149548 	0 	0 	
0.385 0.00668516 	0 	0 	
0.395 0.0271787 	0 	0 	
0.405 0.1001 	0 	0 	
0.415 0.332547 	0 	0 	
0.425 0.992371 	0 	0 	
0.435 2.65218 	0 	0 	
0.445 6.34387 	0 	0 	
0.455 13.6146 	0 	0 	
0.465 26.3531 	0 	0 	
0.475 46.2939 	0 	0 	
0.485 73.7258 	0 	0 	
0.495 102.257 	0 	0 	
0.505 119.299 	0 	0 	
0.515 119.009 	0 	0 	
0.525 104.763 	0 	0 	
0.535 80.9189 	0 	0 	
0.545 53.0967 	0 	0 	
0.555 28.8601 	0 	0 	
0.565 12.922 	0 	0 	
0.575 4.8524 	0 	0 	
0.585 1.57627 	0 	0 	
0.595 0.454927 	0 	0 	
0.605 0.118507 	0 	0 	
0.615 0.0280894 	0 	0 	
0.625 0.00608428 	0 	0 	
0.635 0.00120754 	0 	0 	
0.645 0.000219993 	0 	0 	
0.655 3.68364e-05 	0 	0 	
0.665 5.67332e-06 	0 	0 	
0.675 8.03928e-07 	0 	0 	
0.685 1.04793e-07 	0 	0 	
0.695 1.25573e-08 	0 	0 	
0.705 1.38165e-09 	0 	0 	
0.715 1.39366e-10 	0 	0 	
0.725 1.28688e-11 	0 	0 	
0.735 1.09114e-12 	0 	0 	
0.745 9.0377e-14 	0 	0 	
0.755 8.81725e-15 	0 	0 	
0.765 0 	0 	0 	
0.775 -2.20431e-15 	0 	0 	
0.785 -1.54302e-14 	0 	0 	
0.795 -2.20432e-14 	0 	0 	
0.805 4.99978e-21 	0 	0 	
0.815 1.98388e-14 	-1.95783e-30 	0 	
0.825 1.54302e-14 	0 	0 	
0.835 4.40863e-15 	0 	0 	
0.845 0 	0 	0 	
0.855 -2.20431e-15 	0 	0 	
0.865 -1.10216e-14 	0 	0 	
0.875 -8.81727e-15 	0 	0 	
0.885 8.81726e-15 	0 	0 	
0.895 1.10216e-14 	0 	0 	
0.905 -2.20431e-15 	0 	0 	
0.915 -1.54302e-14 	0 	0 	
0.925 -1.76345e-14 	0 	0 	
0.935 -1.62845e-25 	0 	0 	
0.945 1.76345e-14 	0 	0 	
0.955 1.54302e-14 	0 	0 	
0.965 4.40863e-15 	0 	0 	
0.975 0 	0 	0 	
0.985 0 	0 	0 	
0.995 0 	0 	0 	
