0.005 7.0538e-14 	0 	0 	
0.015 7.0538e-14 	0 	0 	
0.025 -1.41076e-13 	0 	0 	
0.035 -4.70254e-14 	0 	0 	
0.045 5.84877e-25 	0 	0 	
0.055 4.70256e-14 	0 	0 	
0.065 -4.70254e-14 	0 	0 	
0.075 2.35127e-14 	0 	0 	
0.085 5.85006e-25 	0 	0 	
0.095 4.70254e-14 	0 	0 	
0.105 9.40507e-14 	0 	0 	
0.115 -2.35127e-14 	0 	0 	
0.125 -2.35127e-14 	0 	0 	
0.135 -2.35125e-14 	0 	0 	
0.145 -1.41076e-13 	0 	0 	
0.155 -4.70253e-14 	0 	0 	
0.165 -7.0538e-14 	0 	0 	
0.175 -4.70254e-14 	0 	0 	
0.185 -2.08835e-29 	0 	0 	
0.195 -7.05381e-14 	0 	0 	
0.205 2.33785e-24 	3.91565e-30 	0 	
0.215 2.35127e-14 	0 	0 	
0.225 0 	0 	0 	
0.235 4.70254e-14 	0 	0 	
0.245 2.35127e-14 	0 	0 	
0.255 7.05381e-14 	0 	0 	
0.265 -7.05381e-14 	0 	0 	
0.275 -1.41076e-13 	0 	0 	
0.285 -9.4051e-14 	0 	0 	
0.295 2.35127e-14 	0 	0 	
0.305 2.35127e-14 	0 	0 	
0.315 1.17563e-13 	0 	0 	
0.325 4.70254e-14 	0 	0 	
0.335 -7.05381e-14 	0 	0 	
0.345 -4.70254e-14 	0 	0 	
0.355 4.70255e-14 	0 	0 	
0.365 -2.35127e-14 	0 	0 	
0.375 4.70253e-14 	0 	0 	
0.385 3.03314e-12 	0 	0 	
0.395 1.47132e-08 	0 	0 	
0.405 6.50756e-06 	0 	0 	
0.415 0.000711783 	0 	0 	
0.425 0.0278231 	0 	0 	
0.435 0.461572 	0 	0 	
0.445 3.61698 	0 	0 	
0.455 15.156 	0 	0 	
0.465 39.9242 	0 	0 	
0.475 76.4102 	0 	0 	
0.485 113.593 	0 	0 	
0.495 129.556 	0 	0 	
0.505 130.208 	-4.96978e-31 	0 	
0.515 130.144 	9.81839e-31 	0 	
0.525 129.852 	-9.88547e-31 	0 	
0.535 126.472 	-8.52581e-31 	0 	
0.545 105.041 	-8.94648e-31 	0 	
0.555 45.8694 	0 	0 	
0.565 5.46012 	0 	0 	
0.575 0.23638 	0 	0 	
0.585 0.00464428 	0 	0 	
0.595 3.47845e-05 	0 	0 	
0.605 6.66823e-08 	0 	0 	
0.615 1.12861e-11 	0 	0 	
0.625 5.29034e-14 	0 	0 	
0.635 8.81725e-14 	0 	0 	
0.645 5.29035e-14 	0 	0 	
0.655 8.72408e-25 	0 	0 	
0.665 0 	0 	0 	
0.675 7.05381e-14 	0 	0 	
0.685 -1.76345e-14 	0 	0 	
0.695 -3.52689e-14 	0 	0 	
0.705 -3.5269e-14 	0 	0 	
0.715 -5.29035e-14 	0 	0 	
0.725 5.29034e-14 	0 	0 	
0.735 -3.52689e-14 	0 	0 	
0.745 1.76345e-14 	0 	0 	
0.755 -8.81725e-14 	-1.46837e-30 	0 	
0.765 1.76345e-14 	0 	0 	
0.775 4.35418e-25 	0 	0 	
0.785 8.81725e-14 	0 	0 	
0.795 3.5269e-14 	-1.46837e-30 	0 	
0.805 5.29035e-14 	-1.46837e-30 	0 	
0.815 7.0538e-14 	0 	0 	
0.825 3.5269e-14 	0 	0 	
0.835 -1.76345e-14 	0 	0 	
0.845 -3.52689e-14 	0 	0 	
0.855 -3.15544e-30 	0 	0 	
0.865 3.5269e-14 	0 	0 	
0.875 7.0538e-14 	0 	0 	
0.885 7.0538e-14 	0 	0 	
0.895 7.0538e-14 	0 	0 	
0.905 5.29035e-14 	0 	0 	
0.915 -4.34626e-25 	0 	0 	
0.925 1.76346e-14 	0 	0 	
0.935 3.5269e-14 	0 	0 	
0.945 -1.76345e-14 	0 	0 	
0.955 7.05381e-14 	0 	0 	
0.965 -7.0538e-14 	0 	0 	
0.975 -5.29035e-14 	0 	0 	
0.985 1.76345e-14 	0 	0 	
0.995 8.81725e-14 	0 	0 	
