0.005 2.35127e-14 	0 	0 	
0.015 7.05381e-14 	0 	0 	
0.025 1.75479e-24 	0 	0 	
0.035 -5.84923e-25 	0 	0 	
0.045 2.35127e-14 	0 	0 	
0.055 7.0538e-14 	0 	0 	
0.065 4.70254e-14 	0 	0 	
0.075 -2.35126e-14 	0 	0 	
0.085 -2.08835e-29 	0 	0 	
0.095 4.70254e-14 	0 	0 	
0.105 -2.35127e-14 	0 	0 	
0.115 -4.70253e-14 	0 	0 	
0.125 -1.17564e-13 	0 	0 	
0.135 9.40507e-14 	0 	0 	
0.145 -4.70254e-14 	0 	0 	
0.155 -4.70254e-14 	0 	0 	
0.165 -5.84998e-25 	0 	0 	
0.175 2.35127e-14 	0 	0 	
0.185 -2.35127e-14 	0 	0 	
0.195 -9.40507e-14 	0 	0 	
0.205 2.35126e-14 	9.78913e-31 	0 	
0.215 4.70253e-14 	0 	0 	
0.225 -2.35126e-14 	0 	0 	
0.235 4.70256e-14 	0 	0 	
0.245 2.3513e-14 	0 	0 	
0.255 4.70254e-14 	0 	0 	
0.265 -7.05381e-14 	0 	0 	
0.275 4.70254e-14 	0 	0 	
0.285 -2.08834e-29 	0 	0 	
0.295 1.1674e-24 	0 	0 	
0.305 -7.05381e-14 	0 	0 	
0.315 2.35126e-14 	0 	0 	
0.325 2.33479e-24 	0 	0 	
0.335 -7.0538e-14 	0 	0 	
0.345 7.05383e-14 	0 	0 	
0.355 5.83157e-25 	0 	0 	
0.365 -4.70253e-14 	0 	0 	
0.375 -5.22087e-30 	0 	0 	
0.385 2.35127e-14 	0 	0 	
0.395 -9.40507e-14 	0 	0 	
0.405 -4.70253e-14 	0 	0 	
0.415 7.05381e-14 	0 	0 	
0.425 7.0538e-14 	0 	0 	
0.435 9.4051e-14 	0 	0 	
0.445 1.74795e-24 	0 	0 	
0.455 -1.17563e-13 	0 	0 	
0.465 -9.40507e-14 	0 	0 	
0.475 0.205109 	0 	0 	
0.485 10.7935 	0 	0 	
0.495 75.7387 	0 	0 	
0.505 123.834 	-2.98002e-31 	0 	
0.515 50.7888 	6.11693e-31 	0 	
0.525 0.948433 	-9.74221e-31 	0 	
0.535 8.73981e-25 	-3.67092e-31 	0 	
0.545 4.3699e-25 	-3.67092e-31 	0 	
0.555 -3.5269e-14 	0 	0 	
0.565 3.52689e-14 	0 	0 	
0.575 1.76345e-14 	0 	0 	
0.585 1.30859e-24 	0 	0 	
0.595 -1.74479e-24 	0 	0 	
0.605 5.29035e-14 	0 	0 	
0.615 7.0538e-14 	0 	0 	
0.625 -7.05381e-14 	0 	0 	
0.635 -5.29035e-14 	0 	0 	
0.645 3.5269e-14 	0 	0 	
0.655 -1.76345e-14 	0 	0 	
0.665 3.5269e-14 	0 	0 	
0.675 -3.5269e-14 	0 	0 	
0.685 -5.29035e-14 	0 	0 	
0.695 5.29035e-14 	0 	0 	
0.705 -3.5269e-14 	0 	0 	
0.715 4.35425e-25 	0 	0 	
0.725 1.76345e-14 	0 	0 	
0.735 1.76345e-14 	0 	0 	
0.745 -3.5269e-14 	0 	0 	
0.755 8.81725e-14 	-3.67092e-31 	0 	
0.765 3.5269e-14 	0 	0 	
0.775 -1.76345e-14 	0 	0 	
0.785 3.5269e-14 	0 	0 	
0.795 5.29035e-14 	-3.67092e-31 	0 	
0.805 1.76345e-14 	-3.67092e-31 	0 	
0.815 1.7386e-24 	0 	0 	
0.825 -1.23441e-13 	0 	0 	
0.835 -8.6928e-25 	0 	0 	
0.845 -1.76345e-14 	0 	0 	
0.855 -3.15544e-30 	0 	0 	
0.865 -3.5269e-14 	0 	0 	
0.875 -3.5269e-14 	0 	0 	
0.885 4.34656e-25 	0 	0 	
0.895 -1.76345e-14 	0 	0 	
0.905 -1.76345e-14 	0 	0 	
0.915 1.05807e-13 	0 	0 	
0.925 5.29035e-14 	0 	0 	
0.935 5.29035e-14 	0 	0 	
0.945 -3.5269e-14 	0 	0 	
0.955 -3.5269e-14 	0 	0 	
0.965 1.76345e-14 	0 	0 	
0.975 1.76345e-14 	0 	0 	
0.985 -1.76345e-14 	0 	0 	
0.995 7.0538e-14 	0 	0 	
