0.005 4.90141e-14 	0 	0 	
0.015 8.22944e-14 	0 	0 	
0.025 9.99288e-14 	0 	0 	
0.035 9.11115e-14 	0 	0 	
0.045 3.52689e-14 	0 	0 	
0.055 -2.35127e-14 	0 	0 	
0.065 -2.64518e-14 	0 	0 	
0.075 -1.76345e-14 	0 	0 	
0.085 -3.23299e-14 	0 	0 	
0.095 -1.76345e-14 	0 	0 	
0.105 1.46954e-14 	0 	0 	
0.115 2.35127e-14 	0 	0 	
0.125 1.17563e-14 	0 	0 	
0.135 -3.8208e-14 	0 	0 	
0.145 -1.14624e-13 	-2.61043e-30 	0 	
0.155 -1.70467e-13 	0 	0 	
0.165 -1.73407e-13 	0 	0 	
0.175 -1.26381e-13 	0 	0 	
0.185 -5.58427e-14 	0 	0 	
0.195 1.46954e-14 	0 	0 	
0.205 4.40863e-14 	0 	0 	
0.215 3.82081e-14 	0 	0 	
0.225 6.17207e-14 	0 	0 	
0.235 8.52333e-14 	5.22087e-30 	0 	
0.245 5.58425e-14 	0 	0 	
0.255 1.76345e-14 	0 	0 	
0.265 2.93908e-15 	0 	0 	
0.275 0 	0 	0 	
0.285 0 	0 	0 	
0.295 0 	0 	0 	
0.305 0 	0 	0 	
0.315 -2.93907e-15 	0 	0 	
0.325 2.9391e-15 	0 	0 	
0.335 8.81725e-15 	0 	0 	
0.345 -2.9391e-15 	0 	0 	
0.355 -5.87818e-15 	0 	0 	
0.365 0 	0 	0 	
0.375 -8.81725e-15 	0 	0 	
0.385 -2.64517e-14 	0 	0 	
0.395 -4.40863e-14 	0 	0 	
0.405 -4.11472e-14 	0 	0 	
0.415 2.93905e-15 	0 	0 	
0.425 0.2936 	0 	0 	
0.435 4.97227 	0 	0 	
0.445 20.7447 	0 	0 	
0.455 47.7394 	0 	0 	
0.465 79.1716 	0 	0 	
0.475 107.448 	0 	0 	
0.485 125.058 	0 	0 	
0.495 129.968 	0 	0 	
0.505 129.407 	0 	0 	
0.515 129.696 	0 	0 	
0.525 130.461 	0 	0 	
0.535 130.92 	0 	0 	
0.545 129.351 	0 	0 	
0.555 116.228 	0 	0 	
0.565 81.0992 	0 	0 	
0.575 35.3753 	-2.26013e-31 	0 	
0.585 6.76363 	0 	0 	
0.595 8.81728e-15 	0 	0 	
0.605 -3.5269e-14 	0 	0 	
0.615 -7.0538e-14 	0 	0 	
0.625 -6.83338e-14 	0 	0 	
0.635 -5.06993e-14 	0 	0 	
0.645 -1.98389e-14 	0 	0 	
0.655 2.2043e-15 	0 	0 	
0.665 -2.42474e-14 	0 	0 	
0.675 -4.1882e-14 	0 	0 	
0.685 -4.40863e-15 	0 	0 	
0.695 3.08604e-14 	0 	0 	
0.705 2.42475e-14 	0 	0 	
0.715 2.42475e-14 	0 	0 	
0.725 5.95164e-14 	0 	0 	
0.735 8.59681e-14 	0 	0 	
0.745 6.3925e-14 	0 	0 	
0.755 2.42475e-14 	0 	0 	
0.765 4.40863e-15 	0 	0 	
0.775 -4.40862e-15 	0 	0 	
0.785 -2.20431e-14 	0 	0 	
0.795 -2.64518e-14 	0 	0 	
0.805 2.2043e-15 	0 	0 	
0.815 2.42475e-14 	-3.91565e-30 	0 	
0.825 1.98389e-14 	0 	0 	
0.835 6.61295e-15 	0 	0 	
0.845 0 	0 	0 	
0.855 0 	0 	0 	
0.865 -1.54302e-14 	0 	0 	
0.875 -3.74733e-14 	0 	0 	
0.885 -3.52691e-14 	0 	0 	
0.895 -1.76345e-14 	0 	0 	
0.905 -8.81727e-15 	0 	0 	
0.915 -1.76345e-14 	0 	0 	
0.925 -2.42475e-14 	0 	0 	
0.935 -1.32259e-14 	0 	0 	
0.945 8.81725e-15 	0 	0 	
0.955 3.30647e-14 	0 	0 	
0.965 4.1882e-14 	0 	0 	
0.975 3.30648e-14 	0 	0 	
0.985 2.64518e-14 	0 	0 	
0.995 2.09575e-14 	0 	0 	
