0.005 4.90141e-14 	0 	0 	
0.015 8.22944e-14 	0 	0 	
0.025 9.69898e-14 	0 	0 	
0.035 9.11116e-14 	0 	0 	
0.045 6.17208e-14 	0 	0 	
0.055 1.76345e-14 	0 	0 	
0.065 -1.17563e-14 	0 	0 	
0.075 -1.76345e-14 	0 	0 	
0.085 -1.46954e-14 	0 	0 	
0.095 -2.50001e-20 	0 	0 	
0.105 -2.93912e-15 	0 	0 	
0.115 -4.11472e-14 	0 	0 	
0.125 -8.52335e-14 	0 	0 	
0.135 -1.32259e-13 	0 	0 	
0.145 -1.76345e-13 	-3.26305e-31 	0 	
0.155 -1.79285e-13 	0 	0 	
0.165 -1.46955e-13 	0 	0 	
0.175 -1.20503e-13 	0 	0 	
0.185 -7.64163e-14 	0 	0 	
0.195 5.87815e-15 	0 	0 	
0.205 5.87817e-14 	0 	0 	
0.215 6.17208e-14 	0 	0 	
0.225 7.93552e-14 	0 	0 	
0.235 9.40505e-14 	6.52609e-31 	0 	
0.245 6.46598e-14 	0 	0 	
0.255 3.5269e-14 	0 	0 	
0.265 2.35127e-14 	0 	0 	
0.275 1.46954e-14 	0 	0 	
0.285 3.5269e-14 	0 	0 	
0.295 7.05381e-14 	0 	0 	
0.305 5.58427e-14 	0 	0 	
0.315 2.64518e-14 	0 	0 	
0.325 3.23299e-14 	0 	0 	
0.335 2.93908e-15 	0 	0 	
0.345 -5.87817e-14 	0 	0 	
0.355 -7.05381e-14 	0 	0 	
0.365 -5.29036e-14 	0 	0 	
0.375 -4.40863e-14 	0 	0 	
0.385 -4.70254e-14 	0 	0 	
0.395 -5.87817e-14 	0 	0 	
0.405 -5.29036e-14 	0 	0 	
0.415 0.576672 	0 	0 	
0.425 5.81294 	0 	0 	
0.435 20.795 	0 	0 	
0.445 44.1881 	0 	0 	
0.455 70.5273 	0 	0 	
0.465 95.3172 	0 	0 	
0.475 114.766 	0 	0 	
0.485 126.616 	0 	0 	
0.495 131.315 	0 	0 	
0.505 131.241 	0 	0 	
0.515 129.647 	0 	0 	
0.525 129.092 	0 	0 	
0.535 130.213 	0 	0 	
0.545 131.674 	0 	0 	
0.555 130.942 	0 	0 	
0.565 121.416 	0 	0 	
0.575 91.389 	-7.37965e-31 	0 	
0.585 45.2068 	-2.18243e-31 	0 	
0.595 10.7648 	0 	0 	
0.605 0.369678 	0 	0 	
0.615 -5.95165e-14 	0 	0 	
0.625 -7.93552e-14 	0 	0 	
0.635 -8.37638e-14 	0 	0 	
0.645 -3.52689e-14 	0 	0 	
0.655 2.20433e-15 	0 	0 	
0.665 -3.08604e-14 	0 	0 	
0.675 -4.1882e-14 	0 	0 	
0.685 1.98388e-14 	0 	0 	
0.695 5.95165e-14 	0 	0 	
0.705 3.74734e-14 	0 	0 	
0.715 2.64518e-14 	0 	0 	
0.725 6.61295e-14 	0 	0 	
0.735 1.03603e-13 	0 	0 	
0.745 7.93554e-14 	0 	0 	
0.755 2.20432e-14 	0 	0 	
0.765 -1.98388e-14 	0 	0 	
0.775 -3.74734e-14 	0 	0 	
0.785 -3.52691e-14 	0 	0 	
0.795 -3.96776e-14 	0 	0 	
0.805 -4.1882e-14 	0 	0 	
0.815 -2.20431e-14 	-4.89455e-31 	0 	
0.825 -4.40863e-15 	0 	0 	
0.835 4.40863e-15 	0 	0 	
0.845 1.76345e-14 	0 	0 	
0.855 4.1882e-14 	0 	0 	
0.865 6.61294e-14 	0 	0 	
0.875 4.40863e-14 	0 	0 	
0.885 -3.30647e-14 	0 	0 	
0.895 -7.27424e-14 	0 	0 	
0.905 -3.30647e-14 	0 	0 	
0.915 2.20431e-14 	0 	0 	
0.925 3.96777e-14 	0 	0 	
0.935 2.42475e-14 	0 	0 	
0.945 2.42475e-14 	0 	0 	
0.955 3.52691e-14 	0 	0 	
0.965 2.20432e-14 	0 	0 	
0.975 4.40863e-15 	0 	0 	
0.985 0 	0 	0 	
0.995 0 	0 	0 	
