0.005 7.2037e-14 	0 	0 	
0.015 3.35056e-15 	0 	0 	
0.025 1.67528e-13 	0 	0 	
0.035 1.28997e-13 	0 	0 	
0.045 -1.00517e-14 	0 	0 	
0.055 -1.00515e-14 	0 	0 	
0.065 1.27321e-13 	0 	0 	
0.075 7.53877e-14 	0 	0 	
0.085 1.50775e-14 	0 	0 	
0.095 3.35055e-14 	0 	0 	
0.105 -8.54394e-14 	0 	0 	
0.115 3.35054e-14 	0 	0 	
0.125 -7.53873e-14 	0 	0 	
0.135 -6.19855e-14 	0 	0 	
0.145 -8.37666e-15 	0 	0 	
0.155 -8.37664e-15 	0 	0 	
0.165 3.18301e-14 	0 	0 	
0.175 1.67525e-14 	0 	0 	
0.185 5.1934e-14 	0 	0 	
0.195 -8.37638e-15 	0 	0 	
0.205 -3.35054e-14 	0 	0 	
0.215 -1.491e-13 	0 	0 	
0.225 -1.00517e-13 	0 	0 	
0.235 2.84796e-14 	0 	0 	
0.245 3.51808e-14 	0 	0 	
0.255 -3.51808e-14 	0 	0 	
0.265 1.65853e-13 	0 	0 	
0.275 -8.37662e-15 	0 	0 	
0.285 -1.00515e-14 	0 	0 	
0.295 2.01034e-14 	0 	0 	
0.305 -2.34538e-14 	0 	0 	
0.315 1.50775e-14 	0 	0 	
0.325 2.51291e-14 	0 	0 	
0.335 -1.25646e-13 	0 	0 	
0.345 -1.00517e-14 	0 	0 	
0.355 -1.40723e-13 	0 	0 	
0.365 -4.02066e-14 	0 	0 	
0.375 -1.1727e-13 	0 	0 	
0.385 2.51293e-14 	0 	0 	
0.395 1.28996e-13 	0 	0 	
0.405 1.2397e-13 	0 	0 	
0.415 5.66891e-08 	0 	0 	
0.425 0.000621661 	0 	0 	
0.435 0.0816161 	0 	0 	
0.445 1.87597 	0 	0 	
0.455 12.5485 	0 	0 	
0.465 39.3772 	0 	0 	
0.475 79.684 	0 	0 	
0.485 118.197 	0 	0 	
0.495 130.077 	0 	0 	
0.505 130.184 	0 	0 	
0.515 130.135 	0 	0 	
0.525 130.043 	0 	0 	
0.535 128.353 	0 	0 	
0.545 110.788 	0 	0 	
0.555 38.1702 	0 	0 	
0.565 1.12039 	0 	0 	
0.575 0.00498729 	0 	0 	
0.585 2.65177e-07 	0 	0 	
0.595 -1.2439e-13 	0 	0 	
0.605 1.28159e-13 	0 	0 	
0.615 1.75905e-14 	0 	0 	
0.625 5.65407e-14 	0 	0 	
0.635 -7.16181e-14 	0 	0 	
0.645 -5.27713e-14 	0 	0 	
0.655 4.39757e-14 	0 	0 	
0.665 1.65853e-13 	0 	0 	
0.675 -6.282e-15 	0 	0 	
0.685 -9.42343e-14 	0 	0 	
0.695 -9.54911e-14 	0 	0 	
0.705 -3.26682e-14 	0 	0 	
0.715 -8.79527e-15 	0 	0 	
0.725 -1.10179e-25 	0 	0 	
0.735 -5.40279e-14 	0 	0 	
0.745 1.25648e-14 	0 	0 	
0.755 -7.28749e-14 	0 	0 	
0.765 5.40277e-14 	0 	0 	
0.775 1.25646e-14 	0 	0 	
0.785 4.77453e-14 	0 	0 	
0.795 -8.92086e-14 	0 	0 	
0.805 -1.75907e-14 	0 	0 	
0.815 5.02585e-15 	0 	0 	
0.825 -6.28232e-14 	0 	0 	
0.835 -9.92602e-14 	0 	0 	
0.845 -3.39245e-14 	0 	0 	
0.855 -1.25647e-14 	0 	0 	
0.865 -4.39761e-14 	0 	0 	
0.875 1.44493e-13 	0 	0 	
0.885 1.25635e-15 	0 	0 	
0.895 -2.13599e-14 	0 	0 	
0.905 3.26681e-14 	0 	0 	
0.915 -8.79501e-15 	0 	0 	
0.925 -3.14114e-14 	0 	0 	
0.935 -6.2823e-15 	0 	0 	
0.945 -7.66441e-14 	0 	0 	
0.955 -1.38212e-14 	0 	0 	
0.965 1.8847e-14 	0 	0 	
0.975 1.25646e-14 	0 	0 	
0.985 4.14631e-14 	0 	0 	
0.995 1.13081e-14 	0 	0 	
