0.005 8.71501e-05 	0 	0 	
0.015 -7.41975e-05 	0 	0 	
0.025 -1.03e-06 	0 	0 	
0.035 -6.8999e-05 	0 	0 	
0.045 7.858e-05 	0 	0 	
0.055 -4.1305e-05 	0 	0 	
0.065 -0.000652633 	0 	0 	
0.075 -0.000316835 	0 	0 	
0.085 -9.9852e-05 	0 	0 	
0.095 0.000279318 	0 	0 	
0.105 7.1465e-05 	0 	0 	
0.115 -7.8535e-05 	0 	0 	
0.125 -0.000181017 	0 	0 	
0.135 -0.000508915 	0 	0 	
0.145 0.00049698 	0 	0 	
0.155 0.000167669 	0 	0 	
0.165 -0.0001274 	0 	0 	
0.175 8.81e-05 	0 	0 	
0.185 -0.00032513 	0 	0 	
0.195 5.6165e-05 	0 	0 	
0.205 -0.00017513 	0 	0 	
0.215 -9.0685e-05 	0 	0 	
0.225 -0.000319343 	0 	0 	
0.235 -3.8775e-05 	0 	0 	
0.245 0.00027034 	0 	0 	
0.255 -9.315e-05 	0 	0 	
0.265 -4.25e-07 	0 	0 	
0.275 -0.000117995 	0 	0 	
0.285 0.000102312 	0 	0 	
0.295 -0.000257025 	0 	0 	
0.305 -0.000170085 	0 	0 	
0.315 4.424e-05 	0 	0 	
0.325 1.842e-05 	0 	0 	
0.335 -3.7265e-05 	0 	0 	
0.345 0.00014556 	0 	0 	
0.355 1.7936e-05 	0 	0 	
0.365 2.544e-05 	0 	0 	
0.375 0.000168475 	0 	0 	
0.385 -0.000117405 	0 	0 	
0.395 -0.00046163 	0 	0 	
0.405 0.000103088 	0 	0 	
0.415 0.00010583 	0 	0 	
0.425 -0.000234525 	0 	0 	
0.435 0.000282555 	0 	0 	
0.445 -2541.28 	0 	0 	
0.455 -1.65009e+10 	0 	0 	
0.465 -7.43335e+18 	0 	0 	
0.475 -4.83596e+30 	0 	0 	
0.485 -3.79292e+39 	0 	0 	
0.495 -3.11381e+49 	0 	0 	
0.505 7.23665e+51 	0 	0 	
0.515 5.14255e+46 	0 	0 	
0.525 2.31019e+38 	0 	0 	
0.535 7.20453e+25 	0 	0 	
0.545 5.93559e+16 	0 	0 	
0.555 105946 	0 	0 	
0.565 0.000518785 	0 	0 	
0.575 0.000156995 	0 	0 	
0.585 -0.000205788 	0 	0 	
0.595 2.675e-06 	0 	0 	
0.605 9.7149e-05 	0 	0 	
0.615 8.6035e-05 	0 	0 	
0.625 -0.000603902 	0 	0 	
0.635 0.000251827 	0 	0 	
0.645 -8.648e-05 	0 	0 	
0.655 0.00034377 	0 	0 	
0.665 0.00013278 	0 	0 	
0.675 0.00029618 	0 	0 	
0.685 -0.000261105 	0 	0 	
0.695 9.6615e-05 	0 	0 	
0.705 -0.000140095 	0 	0 	
0.715 -0.000486845 	0 	0 	
0.725 3.16112e-05 	0 	0 	
0.735 -0.00014582 	0 	0 	
0.745 -0.000290455 	0 	0 	
0.755 0.000373725 	0 	0 	
0.765 -0.000279745 	0 	0 	
0.775 -0.000237415 	0 	0 	
0.785 0.00062364 	0 	0 	
0.795 0.000493693 	0 	0 	
0.805 0.000187625 	0 	0 	
0.815 5.9745e-05 	0 	0 	
0.825 -0.00037095 	0 	0 	
0.835 0.000111395 	0 	0 	
0.845 -6.1965e-05 	0 	0 	
0.855 7.2316e-05 	0 	0 	
0.865 -0.000400765 	0 	0 	
0.875 -0.000220779 	0 	0 	
0.885 -0.000347535 	0 	0 	
0.895 0.000488365 	0 	0 	
0.905 -0.00024222 	0 	0 	
0.915 0.000165471 	0 	0 	
0.925 8.9735e-05 	0 	0 	
0.935 -7.0215e-05 	0 	0 	
0.945 -0.000169228 	0 	0 	
0.955 0.000350135 	0 	0 	
0.965 0.000136411 	0 	0 	
0.975 -0.00028776 	0 	0 	
0.985 2.896e-05 	0 	0 	
0.995 5.505e-05 	0 	0 	
