0.005 1.17564e-13 	0 	0 	
0.015 5.87815e-14 	0 	0 	
0.025 -4.40865e-14 	0 	0 	
0.035 4.40861e-14 	0 	0 	
0.045 -1.46954e-14 	0 	0 	
0.055 -1.46954e-14 	0 	0 	
0.065 -2.93909e-14 	0 	0 	
0.075 4.40862e-14 	0 	0 	
0.085 -1.46953e-14 	0 	0 	
0.095 0 	0 	0 	
0.105 -5.87819e-14 	0 	0 	
0.115 -5.87815e-14 	0 	0 	
0.125 4.40862e-14 	0 	0 	
0.135 7.3477e-14 	0 	0 	
0.145 -7.34773e-14 	0 	0 	
0.155 1.75002e-19 	0 	0 	
0.165 1.46954e-14 	0 	0 	
0.175 7.34769e-14 	0 	0 	
0.185 4.40863e-14 	0 	0 	
0.195 -5.87816e-14 	0 	0 	
0.205 -1.02868e-13 	0 	0 	
0.215 8.81728e-14 	0 	0 	
0.225 1.46953e-14 	0 	0 	
0.235 1.46953e-14 	0 	0 	
0.245 -4.40862e-14 	0 	0 	
0.255 -1.75002e-19 	0 	0 	
0.265 -2.05736e-13 	0 	0 	
0.275 -1.02868e-13 	0 	0 	
0.285 1.46955e-14 	0 	0 	
0.295 7.34771e-14 	0 	0 	
0.305 4.40863e-14 	0 	0 	
0.315 7.34771e-14 	0 	0 	
0.325 1.46954e-14 	0 	0 	
0.335 2.9391e-14 	0 	0 	
0.345 5.04871e-29 	0 	0 	
0.355 2.93912e-14 	0 	0 	
0.365 4.40863e-14 	0 	0 	
0.375 -5.87815e-14 	0 	0 	
0.385 2.93905e-14 	0 	0 	
0.395 4.40861e-14 	0 	0 	
0.405 8.81727e-14 	0 	0 	
0.415 2.93908e-14 	0 	0 	
0.425 -2.93908e-14 	0 	0 	
0.435 -8.81725e-14 	0 	0 	
0.445 6.36076e-05 	0 	0 	
0.455 0.0678239 	0 	0 	
0.465 2.74769 	0 	0 	
0.475 22.0811 	0 	0 	
0.485 70.8677 	0 	0 	
0.495 123.362 	0 	0 	
0.505 130.18 	0 	0 	
0.515 128.859 	0 	0 	
0.525 107.248 	0 	0 	
0.535 28.0625 	0 	0 	
0.545 0.500626 	0 	0 	
0.555 0.000291784 	0 	0 	
0.565 4.40863e-14 	0 	0 	
0.575 -3.30645e-14 	0 	0 	
0.585 -2.20432e-14 	0 	0 	
0.595 -2.20432e-14 	0 	0 	
0.605 4.40863e-14 	0 	0 	
0.615 1.32259e-13 	0 	0 	
0.625 8.81726e-14 	0 	0 	
0.635 7.71509e-14 	0 	0 	
0.645 -1.10215e-14 	0 	0 	
0.655 -4.40863e-14 	0 	0 	
0.665 2.2043e-14 	0 	0 	
0.675 1.24996e-19 	0 	0 	
0.685 4.40862e-14 	0 	0 	
0.695 5.51079e-14 	0 	0 	
0.705 -4.08204e-24 	0 	0 	
0.715 -2.20433e-14 	0 	0 	
0.725 -3.30648e-14 	0 	0 	
0.735 -4.40863e-14 	0 	0 	
0.745 -1.10216e-14 	0 	0 	
0.755 2.20432e-14 	0 	0 	
0.765 -2.20432e-14 	0 	0 	
0.775 -4.40863e-14 	0 	0 	
0.785 -9.91942e-14 	0 	0 	
0.795 2.50014e-20 	0 	0 	
0.805 1.10217e-14 	0 	0 	
0.815 2.20432e-14 	0 	0 	
0.825 2.20432e-14 	0 	0 	
0.835 -3.30647e-14 	0 	0 	
0.845 5.51079e-14 	0 	0 	
0.855 7.71509e-14 	0 	0 	
0.865 6.61295e-14 	0 	0 	
0.875 -2.20432e-14 	0 	0 	
0.885 -2.20432e-14 	0 	0 	
0.895 1.10215e-14 	0 	0 	
0.905 6.61295e-14 	0 	0 	
0.915 -8.81728e-14 	0 	0 	
0.925 4.07469e-24 	0 	0 	
0.935 -1.10216e-14 	0 	0 	
0.945 5.51079e-14 	0 	0 	
0.955 9.91941e-14 	0 	0 	
0.965 1.10215e-14 	0 	0 	
0.975 9.91942e-14 	0 	0 	
0.985 7.71509e-14 	0 	0 	
0.995 1.10216e-14 	0 	0 	
