0.005 2.29513e-13 	0 	0 	
0.015 2.51294e-14 	0 	0 	
0.025 1.76311e-25 	0 	0 	
0.035 1.60827e-13 	0 	0 	
0.045 8.87896e-14 	0 	0 	
0.055 8.04134e-14 	0 	0 	
0.065 9.54908e-14 	0 	0 	
0.075 3.35056e-14 	0 	0 	
0.085 4.05465e-29 	0 	0 	
0.095 1.65853e-13 	0 	0 	
0.105 1.00517e-13 	0 	0 	
0.115 2.51293e-14 	0 	0 	
0.125 2.0941e-13 	0 	0 	
0.135 -6.36608e-14 	0 	0 	
0.145 -9.21403e-14 	0 	0 	
0.155 -1.54126e-13 	0 	0 	
0.165 3.3506e-14 	0 	0 	
0.175 -1.00517e-13 	0 	0 	
0.185 1.18945e-13 	0 	0 	
0.195 -1.84281e-14 	0 	0 	
0.205 -6.7011e-14 	0 	0 	
0.215 -4.52326e-14 	0 	0 	
0.225 -1.00516e-13 	0 	0 	
0.235 -9.04653e-14 	0 	0 	
0.245 2.17785e-14 	0 	0 	
0.255 -2.41784e-30 	0 	0 	
0.265 -6.70112e-15 	0 	0 	
0.275 7.53874e-14 	0 	0 	
0.285 -3.35055e-14 	0 	0 	
0.295 -1.28997e-13 	0 	0 	
0.305 5.02581e-15 	0 	0 	
0.315 -6.36607e-14 	0 	0 	
0.325 -8.3764e-15 	0 	0 	
0.335 -3.35055e-14 	0 	0 	
0.345 1.04923e-11 	0 	0 	
0.355 3.12843e-08 	0 	0 	
0.365 9.05811e-06 	0 	0 	
0.375 0.000791155 	0 	0 	
0.385 0.0249214 	0 	0 	
0.395 0.33836 	0 	0 	
0.405 2.308 	0 	0 	
0.415 8.88076 	0 	0 	
0.425 22.3322 	0 	0 	
0.435 42.3704 	0 	0 	
0.445 66.9441 	0 	0 	
0.455 93.1042 	0 	0 	
0.465 116.055 	6.72935e-31 	0 	
0.475 128.204 	0 	0 	
0.485 130.182 	0 	0 	
0.495 130.186 	0 	0 	
0.505 130.158 	0 	0 	
0.515 130.136 	0 	0 	
0.525 130.117 	0 	0 	
0.535 130.101 	0 	0 	
0.545 130.084 	0 	0 	
0.555 130.064 	0 	0 	
0.565 129.989 	0 	0 	
0.575 129.155 	0 	0 	
0.585 123.813 	0 	0 	
0.595 90.5994 	0 	0 	
0.605 18.3627 	0 	0 	
0.615 0.730622 	0 	0 	
0.625 0.0129581 	0 	0 	
0.635 9.80154e-05 	0 	0 	
0.645 2.50633e-07 	0 	0 	
0.655 6.47755e-11 	0 	0 	
0.665 6.7849e-14 	0 	0 	
0.675 -2.51293e-14 	0 	0 	
0.685 -6.65921e-14 	0 	0 	
0.695 8.7954e-15 	0 	0 	
0.705 -4.52325e-14 	0 	0 	
0.715 4.40718e-25 	0 	0 	
0.725 3.76939e-14 	0 	0 	
0.735 2.13598e-14 	0 	0 	
0.745 1.25613e-15 	0 	0 	
0.755 -7.53876e-15 	0 	0 	
0.765 4.64891e-14 	0 	0 	
0.775 7.53876e-14 	0 	0 	
0.785 2.51288e-15 	0 	0 	
0.795 1.0052e-14 	0 	0 	
0.805 -3.51809e-14 	0 	0 	
0.815 -2.88987e-14 	0 	0 	
0.825 -1.88466e-14 	0 	0 	
0.835 -4.27197e-14 	0 	0 	
0.845 6.65924e-14 	0 	0 	
0.855 -3.39243e-14 	0 	0 	
0.865 9.80039e-14 	0 	0 	
0.875 5.02584e-14 	0 	0 	
0.885 7.03618e-14 	0 	0 	
0.895 3.26679e-14 	0 	0 	
0.905 8.54394e-14 	0 	0 	
0.915 4.14631e-14 	0 	0 	
0.925 -5.02584e-14 	0 	0 	
0.935 3.76938e-15 	0 	0 	
0.945 -4.3976e-14 	0 	0 	
0.955 -5.90537e-14 	0 	0 	
0.965 -1.13081e-14 	0 	0 	
0.975 -9.42347e-14 	0 	0 	
0.985 2.76421e-14 	0 	0 	
0.995 2.23192e-30 	0 	0 	
