0.005 4.84175e-14 	0 	0 	
0.015 -3.36257e-15 	0 	0 	
0.025 -8.40579e-14 	0 	0 	
0.035 -2.82433e-14 	0 	0 	
0.045 6.72463e-14 	0 	0 	
0.055 8.80926e-14 	0 	0 	
0.065 2.20568e-13 	0 	0 	
0.075 2.01739e-14 	0 	0 	
0.085 -4.707e-15 	0 	0 	
0.095 -1.22388e-13 	0 	0 	
0.105 -1.62063e-13 	0 	0 	
0.115 -6.72463e-14 	1.00322e-29 	0 	
0.125 -1.00869e-13 	0 	0 	
0.135 -1.19698e-13 	0 	0 	
0.145 -9.8852e-14 	0 	0 	
0.155 -2.12498e-13 	0 	0 	
0.165 2.08464e-14 	0 	0 	
0.175 -1.00868e-14 	0 	0 	
0.185 -9.81795e-14 	0 	0 	
0.195 -1.00869e-14 	0 	0 	
0.205 -7.73332e-14 	0 	0 	
0.215 -1.65426e-13 	0 	0 	
0.225 -1.78203e-13 	0 	0 	
0.235 -5.8504e-14 	0 	0 	
0.245 1.44579e-13 	0 	0 	
0.255 2.89161e-14 	0 	0 	
0.265 1.09612e-13 	0 	0 	
0.275 3.36233e-14 	0 	0 	
0.285 -9.27998e-14 	0 	0 	
0.295 3.47677e-11 	0 	0 	
0.305 1.11372e-08 	0 	0 	
0.315 1.24676e-06 	0 	0 	
0.325 6.4764e-05 	0 	0 	
0.335 0.00181094 	0 	0 	
0.345 0.02744 	0 	0 	
0.355 0.24182 	0 	0 	
0.365 1.33064 	0 	0 	
0.375 4.75837 	0 	0 	
0.385 12.0378 	0 	0 	
0.395 23.6487 	0 	0 	
0.405 38.9684 	0 	0 	
0.415 56.8781 	0 	0 	
0.425 76.233 	0 	0 	
0.435 95.71 	0 	0 	
0.445 113.189 	0 	0 	
0.455 125.207 	0 	0 	
0.465 129.674 	0 	0 	
0.475 130.193 	0 	0 	
0.485 130.179 	0 	0 	
0.495 130.157 	0 	0 	
0.505 130.14 	0 	0 	
0.515 130.127 	0 	0 	
0.525 130.116 	0 	0 	
0.535 130.106 	0 	0 	
0.545 130.097 	0 	0 	
0.555 130.088 	0 	0 	
0.565 130.079 	0 	0 	
0.575 130.068 	0 	0 	
0.585 130.055 	0 	0 	
0.595 130.034 	0 	0 	
0.605 129.965 	0 	0 	
0.615 127.68 	0 	0 	
0.625 112.858 	0 	0 	
0.635 77.9896 	0 	0 	
0.645 29.8509 	0 	0 	
0.655 1.99228 	0 	0 	
0.665 0.0649965 	0 	0 	
0.675 0.00137164 	0 	0 	
0.685 1.8143e-05 	0 	0 	
0.695 1.21313e-07 	0 	0 	
0.705 2.98183e-10 	0 	0 	
0.715 1.82574e-13 	0 	0 	
0.725 -3.27827e-14 	0 	0 	
0.735 -4.38782e-14 	0 	0 	
0.745 -3.63133e-14 	0 	0 	
0.755 3.53045e-15 	0 	0 	
0.765 -1.46261e-14 	0 	0 	
0.775 -1.13478e-13 	0 	0 	
0.785 -5.19475e-14 	0 	0 	
0.795 -8.01914e-14 	0 	0 	
0.805 -1.43739e-13 	0 	0 	
0.815 2.26957e-14 	0 	0 	
0.825 3.7826e-14 	0 	0 	
0.835 4.43826e-14 	0 	0 	
0.845 -1.66433e-14 	0 	0 	
0.855 1.68956e-13 	0 	0 	
0.865 8.97734e-14 	0 	0 	
0.875 8.82607e-14 	0 	0 	
0.885 5.59828e-14 	0 	0 	
0.895 2.82434e-14 	0 	0 	
0.905 1.01374e-13 	0 	0 	
0.915 -6.25392e-14 	0 	0 	
0.925 -1.00869e-13 	0 	0 	
0.935 7.81738e-14 	0 	0 	
0.945 -6.20351e-14 	0 	0 	
0.955 1.21043e-14 	0 	0 	
0.965 -5.04343e-16 	0 	0 	
0.975 1.00868e-14 	0 	0 	
0.985 -1.19531e-13 	0 	0 	
0.995 -6.85912e-14 	0 	0 	
