0.005 -5.79588e-14 	0 	0 	
0.015 3.75025e-14 	0 	0 	
0.025 1.70468e-14 	0 	0 	
0.035 -6.81868e-14 	0 	0 	
0.045 6.81866e-14 	0 	0 	
0.055 1.29555e-13 	0 	0 	
0.065 -7.84146e-14 	0 	0 	
0.075 -1.70466e-14 	0 	0 	
0.085 -4.77309e-14 	0 	0 	
0.095 -1.0569e-13 	0 	0 	
0.105 6.47776e-14 	0 	0 	
0.115 -1.17526e-24 	0 	0 	
0.125 -4.92094e-24 	0 	0 	
0.135 2.0456e-14 	0 	0 	
0.145 1.60239e-13 	0 	0 	
0.155 -4.09121e-14 	0 	0 	
0.165 3.40934e-14 	0 	0 	
0.175 -6.81867e-14 	0 	0 	
0.185 1.15918e-13 	-6.3874e-30 	0 	
0.195 8.52337e-14 	0 	0 	
0.205 5.11402e-14 	0 	0 	
0.215 1.60239e-13 	0 	0 	
0.225 6.81868e-14 	0 	0 	
0.235 5.45491e-14 	0 	0 	
0.245 -8.52337e-14 	0 	0 	
0.255 7.8415e-14 	-6.3874e-30 	0 	
0.265 3.75029e-14 	-3.07542e-30 	0 	
0.275 -7.36656e-24 	0 	0 	
0.285 -1.0228e-14 	0 	0 	
0.295 -6.81866e-15 	0 	0 	
0.305 -1.05689e-13 	0 	0 	
0.315 -1.19327e-13 	0 	0 	
0.325 -6.81867e-14 	0 	0 	
0.335 3.4093e-14 	0 	0 	
0.345 -3.06842e-14 	0 	0 	
0.355 2.02259e-10 	-2.72056e-30 	0 	
0.365 4.1707e-07 	0 	0 	
0.375 9.24912e-05 	0 	0 	
0.385 0.00541842 	0 	0 	
0.395 0.11806 	0 	0 	
0.405 1.15664 	0 	0 	
0.415 5.7655 	0 	0 	
0.425 17.1346 	0 	0 	
0.435 35.9688 	0 	0 	
0.445 60.4388 	0 	0 	
0.455 87.5655 	0 	0 	
0.465 112.574 	0 	0 	
0.475 127.313 	0 	0 	
0.485 130.158 	0 	0 	
0.495 130.189 	7.14357e-31 	0 	
0.505 130.158 	0 	0 	
0.515 130.135 	0 	0 	
0.525 130.115 	0 	0 	
0.535 130.097 	0 	0 	
0.545 130.078 	0 	0 	
0.555 130.05 	0 	0 	
0.565 129.962 	0 	0 	
0.575 127.284 	0 	0 	
0.585 101.54 	0 	0 	
0.595 54.0194 	0 	0 	
0.605 4.83596 	0 	0 	
0.615 0.113118 	0 	0 	
0.625 0.00117197 	0 	0 	
0.635 3.65789e-06 	0 	0 	
0.645 1.30243e-09 	0 	0 	
0.655 6.13679e-14 	0 	0 	
0.665 1.5342e-14 	0 	0 	
0.675 6.39253e-14 	0 	0 	
0.685 4.0912e-14 	0 	0 	
0.695 -1.35521e-13 	0 	0 	
0.705 9.2052e-14 	0 	0 	
0.715 3.8355e-14 	0 	0 	
0.725 3.83552e-14 	0 	0 	
0.735 4.0912e-14 	0 	0 	
0.745 -5.62539e-14 	0 	0 	
0.755 -3.57979e-14 	0 	0 	
0.765 4.8583e-14 	0 	0 	
0.775 4.99977e-20 	0 	0 	
0.785 1.02281e-14 	0 	0 	
0.795 -5.8811e-14 	0 	0 	
0.805 -1.09951e-13 	0 	0 	
0.815 -3.8355e-14 	0 	0 	
0.825 3.8355e-14 	0 	0 	
0.835 1.7899e-14 	0 	0 	
0.845 2.557e-15 	0 	0 	
0.855 8.9495e-14 	0 	0 	
0.865 -2.0456e-14 	0 	0 	
0.875 -8.9495e-14 	0 	0 	
0.885 -8.6938e-14 	0 	0 	
0.895 -2.81269e-14 	0 	0 	
0.905 -1.20179e-13 	0 	0 	
0.915 5.114e-14 	0 	0 	
0.925 -3.83551e-14 	0 	0 	
0.935 -2.557e-14 	0 	0 	
0.945 2.3013e-14 	0 	0 	
0.955 -5.114e-15 	0 	0 	
0.965 -5.3697e-14 	0 	0 	
0.975 1.2785e-13 	0 	0 	
0.985 -5.11405e-15 	0 	0 	
0.995 7.41535e-14 	0 	0 	
