0.005 3.46812e-14 	0 	0 	
0.015 3.98832e-14 	0 	0 	
0.025 4.33516e-14 	0 	0 	
0.035 3.4681e-14 	0 	0 	
0.045 3.81494e-14 	0 	0 	
0.055 2.25428e-14 	0 	0 	
0.065 1.00576e-13 	0 	0 	
0.075 9.53735e-14 	0 	0 	
0.085 1.90746e-14 	1.63642e-29 	0 	
0.095 -6.0692e-14 	0 	0 	
0.105 1.38725e-13 	0 	0 	
0.115 -3.81494e-14 	-8.18208e-30 	0 	
0.125 1.12714e-13 	8.18208e-30 	0 	
0.135 1.16182e-13 	0 	0 	
0.145 1.56065e-13 	0 	0 	
0.155 4.68196e-14 	0 	0 	
0.165 1.04044e-13 	0 	0 	
0.175 1.30055e-13 	0 	0 	
0.185 1.36991e-13 	0 	0 	
0.195 -3.12131e-14 	0 	0 	
0.205 -3.4681e-14 	0 	0 	
0.215 1.90747e-14 	0 	0 	
0.225 -5.20219e-14 	0 	0 	
0.235 5.87647e-25 	0 	0 	
0.245 2.77449e-14 	0 	0 	
0.255 -1.90747e-14 	0 	0 	
0.265 -5.7224e-14 	0 	0 	
0.275 -2.60109e-14 	0 	0 	
0.285 5.37558e-14 	0 	0 	
0.295 -1.00575e-13 	0 	0 	
0.305 9.01713e-14 	0 	0 	
0.315 4.41145e-12 	0 	0 	
0.325 5.63971e-09 	0 	0 	
0.335 1.37088e-06 	0 	0 	
0.345 0.000110236 	0 	0 	
0.355 0.00375655 	0 	0 	
0.365 0.0622417 	0 	0 	
0.375 0.547742 	0 	0 	
0.385 2.76823 	0 	0 	
0.395 8.86072 	0 	0 	
0.405 20.1826 	0 	0 	
0.415 36.3668 	0 	0 	
0.425 56.0553 	0 	0 	
0.435 77.6648 	0 	0 	
0.445 99.2671 	0 	0 	
0.455 117.592 	0 	0 	
0.465 127.849 	0 	0 	
0.475 130.115 	0 	0 	
0.485 130.19 	0 	0 	
0.495 130.162 	0 	0 	
0.505 130.139 	0 	0 	
0.515 130.115 	0 	0 	
0.525 130.082 	0 	0 	
0.535 130.025 	0 	0 	
0.545 129.922 	0 	0 	
0.555 129.803 	0 	0 	
0.565 -240756 	0 	0 	
0.575 5018.65 	0 	0 	
0.585 2.22135e+10 	0 	0 	
0.595 -3.82687e+10 	0 	0 	
0.605 4.78442e+12 	0 	0 	
0.615 1.22419e+10 	0 	0 	
0.625 1.07572e+06 	0 	0 	
0.635 6.2486 	0 	0 	
0.645 0.12939 	0 	0 	
0.655 0.00213805 	0 	0 	
0.665 1.76924e-05 	0 	0 	
0.675 5.33359e-08 	0 	0 	
0.685 3.2658e-11 	0 	0 	
0.695 -2.341e-14 	0 	0 	
0.705 1.30053e-15 	0 	0 	
0.715 2.99127e-14 	0 	0 	
0.725 4.55192e-14 	0 	0 	
0.735 1.69071e-14 	0 	0 	
0.745 5.59234e-14 	0 	0 	
0.755 8.3235e-14 	0 	0 	
0.765 3.3814e-14 	0 	0 	
0.775 -7.15298e-14 	0 	0 	
0.785 1.70372e-13 	0 	0 	
0.795 -2.60108e-15 	0 	0 	
0.805 -2.21093e-14 	0 	0 	
0.815 -7.67325e-14 	0 	0 	
0.825 1.10546e-13 	0 	0 	
0.835 1.95081e-14 	0 	0 	
0.845 -4.1617e-14 	0 	0 	
0.855 8.06336e-14 	0 	0 	
0.865 7.80298e-15 	0 	0 	
0.875 -1.30055e-14 	0 	0 	
0.885 9.88414e-14 	0 	0 	
0.895 -5.0721e-14 	0 	0 	
0.905 -2.73114e-14 	0 	0 	
0.915 4.03167e-14 	0 	0 	
0.925 5.85245e-14 	0 	0 	
0.935 1.82076e-14 	0 	0 	
0.945 8.81462e-25 	0 	0 	
0.955 1.43061e-14 	0 	0 	
0.965 -4.16174e-14 	0 	0 	
0.975 2.6011e-14 	0 	0 	
0.985 -9.10381e-14 	0 	0 	
0.995 4.812e-14 	0 	0 	
