0.005 -1.41076e-13 	0 	0 	
0.015 1.05807e-13 	0 	0 	
0.025 7.05381e-14 	0 	0 	
0.035 -3.5269e-14 	0 	0 	
0.045 -3.5269e-14 	0 	0 	
0.055 2.11614e-13 	0 	0 	
0.065 -2.63189e-24 	0 	0 	
0.075 -3.52695e-14 	0 	0 	
0.085 7.0538e-14 	0 	0 	
0.095 3.5269e-14 	0 	0 	
0.105 7.05381e-14 	0 	0 	
0.115 -2.11614e-13 	0 	0 	
0.125 1.05807e-13 	-4.77219e-30 	0 	
0.135 -3.5269e-14 	0 	0 	
0.145 7.0538e-14 	0 	0 	
0.155 -3.5269e-14 	0 	0 	
0.165 -2.11614e-13 	0 	0 	
0.175 -7.0538e-14 	-1.05233e-29 	0 	
0.185 -7.0538e-14 	-9.29967e-30 	0 	
0.195 1.76345e-13 	0 	0 	
0.205 1.41076e-13 	0 	0 	
0.215 1.41076e-13 	0 	0 	
0.225 -3.5269e-14 	0 	0 	
0.235 -7.0538e-14 	0 	0 	
0.245 -2.46883e-13 	0 	0 	
0.255 -1.41076e-13 	-1.10128e-29 	0 	
0.265 3.5269e-14 	-1.02786e-29 	0 	
0.275 3.5269e-14 	0 	0 	
0.285 1.62238e-12 	0 	0 	
0.295 1.23064e-09 	0 	0 	
0.305 2.24777e-07 	0 	0 	
0.315 1.66567e-05 	0 	0 	
0.325 0.000592646 	0 	0 	
0.335 0.0112073 	0 	0 	
0.345 0.120413 	0 	0 	
0.355 0.774071 	-9.31848e-30 	0 	
0.365 3.15505 	0 	0 	
0.375 8.8279 	0 	0 	
0.385 18.6065 	0 	0 	
0.395 32.1428 	0 	0 	
0.405 48.4797 	-3.39251e-30 	0 	
0.415 66.5782 	8.97329e-31 	0 	
0.425 85.4001 	-3.1749e-31 	0 	
0.435 103.587 	1.68353e-31 	0 	
0.445 -1974.84 	-3.54137e-31 	0 	
0.455 -7.92894e+07 	-1.16587e-27 	0 	
0.465 -2.66959e+26 	8.37641e-38 	0 	
0.475 -1.27004e+43 	0 	0 	
0.485 -5.21216e+50 	4.10033e-66 	0 	
0.495 -4.51247e+56 	-1.26639e-71 	0 	
0.505 -3.11313e+62 	4.65838e-77 	0 	
0.515 -1.05072e+65 	0 	0 	
0.525 -3.87671e+70 	0 	0 	
0.535 -2.04364e+73 	0 	0 	
0.545 -2.58095e+70 	0 	0 	
0.555 -2.37875e+73 	0 	0 	
0.565 -2.05669e+87 	0 	0 	
0.575 1.75527e+86 	0 	0 	
0.585 -3.77004e+69 	0 	0 	
0.595 8.85751e+75 	0 	0 	
0.605 -2.67669e+66 	0 	0 	
0.615 3.36291e+61 	0 	0 	
0.625 3.05284e+53 	0 	0 	
0.635 1.88391e+47 	0 	0 	
0.645 4.25322e+40 	0 	0 	
0.655 4.85135e+25 	0 	0 	
0.665 1.17941e+20 	0 	0 	
0.675 3.40358e+20 	0 	0 	
0.685 -2.78585e+24 	0 	0 	
0.695 3.33342e-06 	0 	0 	
0.705 1.34567e-08 	0 	0 	
0.715 1.69556e-11 	0 	0 	
0.725 -1.05807e-13 	0 	0 	
0.735 -5.29035e-14 	0 	0 	
0.745 9.79692e-25 	0 	0 	
0.755 -2.6452e-14 	0 	0 	
0.765 -3.91878e-24 	0 	0 	
0.775 5.29035e-14 	0 	0 	
0.785 1.85162e-13 	0 	0 	
0.795 1.05807e-13 	0 	0 	
0.805 7.93552e-14 	0 	0 	
0.815 5.29036e-14 	0 	0 	
0.825 7.93553e-14 	0 	0 	
0.835 2.64515e-14 	0 	0 	
0.845 1.32259e-13 	0 	0 	
0.855 1.05807e-13 	0 	0 	
0.865 2.64515e-14 	0 	0 	
0.875 5.29035e-14 	0 	0 	
0.885 -1.85162e-13 	0 	0 	
0.895 -5.29035e-14 	0 	0 	
0.905 7.9355e-14 	0 	0 	
0.915 -5.29035e-14 	0 	0 	
0.925 -7.93555e-14 	0 	0 	
0.935 -1.05807e-13 	0 	0 	
0.945 -1.85162e-13 	0 	0 	
0.955 -3.90473e-24 	0 	0 	
0.965 -7.93555e-14 	0 	0 	
0.975 -1.32259e-13 	0 	0 	
0.985 7.93555e-14 	0 	0 	
0.995 2.6452e-14 	0 	0 	
