0.005 1.46953e-14 	0 	0 	
0.015 -5.87815e-14 	0 	0 	
0.025 4.40864e-14 	0 	0 	
0.035 4.40865e-14 	0 	0 	
0.045 -1.17563e-13 	0 	0 	
0.055 -2.93908e-14 	0 	0 	
0.065 2.93909e-14 	0 	0 	
0.075 -2.93909e-14 	0 	0 	
0.085 -8.81723e-14 	0 	0 	
0.095 -1.17563e-13 	0 	0 	
0.105 -4.40862e-14 	0 	0 	
0.115 2.93909e-14 	0 	0 	
0.125 1.46954e-13 	0 	0 	
0.135 1.17564e-13 	0 	0 	
0.145 1.32259e-13 	0 	0 	
0.155 1.76345e-13 	0 	0 	
0.165 1.76345e-13 	0 	0 	
0.175 2.05736e-13 	0 	0 	
0.185 1.02868e-13 	0 	0 	
0.195 5.87816e-14 	0 	0 	
0.205 -1.17563e-13 	0 	0 	
0.215 -1.17563e-13 	0 	0 	
0.225 -8.81723e-14 	0 	0 	
0.235 -4.40862e-14 	0 	0 	
0.245 -1.32259e-13 	0 	0 	
0.255 -1.76345e-13 	0 	0 	
0.265 -1.91041e-13 	0 	0 	
0.275 -1.17564e-13 	0 	0 	
0.285 -1.17563e-13 	0 	0 	
0.295 -8.81725e-14 	0 	0 	
0.305 5.87815e-14 	0 	0 	
0.315 5.87815e-14 	0 	0 	
0.325 7.34771e-14 	0 	0 	
0.335 1.32259e-13 	0 	0 	
0.345 5.34913e-12 	0 	0 	
0.355 6.59743e-09 	0 	0 	
0.365 1.70851e-06 	0 	0 	
0.375 0.000148156 	0 	0 	
0.385 0.00540766 	0 	0 	
0.395 0.0942576 	0 	0 	
0.405 0.850736 	0 	0 	
0.415 4.2988 	0 	0 	
0.425 13.5407 	0 	0 	
0.435 30.1992 	0 	0 	
0.445 53.2925 	0 	0 	
0.455 80.1919 	0 	0 	
0.465 106.605 	0 	0 	
0.475 124.827 	0 	0 	
0.485 129.985 	0 	0 	
0.495 130.205 	0 	0 	
0.505 130.171 	0 	0 	
0.515 130.144 	0 	0 	
0.525 130.121 	0 	0 	
0.535 130.1 	0 	0 	
0.545 130.077 	0 	0 	
0.555 130.003 	0 	0 	
0.565 129.302 	0 	0 	
0.575 123.778 	0 	0 	
0.585 95.7081 	0 	0 	
0.595 31.1503 	0 	0 	
0.605 2.39594 	0 	0 	
0.615 0.0835722 	0 	0 	
0.625 0.00158387 	0 	0 	
0.635 1.38886e-05 	0 	0 	
0.645 4.31489e-08 	0 	0 	
0.655 2.84908e-11 	0 	0 	
0.665 4.40862e-14 	0 	0 	
0.675 3.30647e-14 	0 	0 	
0.685 5.51079e-14 	0 	0 	
0.695 3.30647e-14 	0 	0 	
0.705 8.81727e-14 	0 	0 	
0.715 -4.40863e-14 	0 	0 	
0.725 -4.40862e-14 	0 	0 	
0.735 -7.71511e-14 	0 	0 	
0.745 -1.21237e-13 	0 	0 	
0.755 -9.91941e-14 	0 	0 	
0.765 -6.61294e-14 	0 	0 	
0.775 -1.65323e-13 	0 	0 	
0.785 -7.7151e-14 	0 	0 	
0.795 -5.51077e-14 	0 	0 	
0.805 1.10215e-14 	0 	0 	
0.815 -2.20432e-14 	0 	0 	
0.825 -2.20432e-14 	0 	0 	
0.835 7.7151e-14 	0 	0 	
0.845 9.91943e-14 	0 	0 	
0.855 1.98388e-13 	0 	0 	
0.865 7.7151e-14 	0 	0 	
0.875 4.40863e-14 	0 	0 	
0.885 -5.51079e-14 	0 	0 	
0.895 2.20431e-14 	0 	0 	
0.905 -2.20433e-14 	0 	0 	
0.915 2.20432e-14 	0 	0 	
0.925 -9.91939e-14 	0 	0 	
0.935 9.91942e-14 	0 	0 	
0.945 -1.10216e-14 	0 	0 	
0.955 9.9194e-14 	0 	0 	
0.965 7.71509e-14 	0 	0 	
0.975 6.61293e-14 	0 	0 	
0.985 2.20431e-14 	0 	0 	
0.995 4.06737e-24 	0 	0 	
