0.005 3.13252e-29 	0 	0 	
0.015 3.5269e-14 	0 	0 	
0.025 2.11614e-13 	0 	0 	
0.035 7.05379e-14 	0 	0 	
0.045 1.41076e-13 	0 	0 	
0.055 7.0538e-14 	0 	0 	
0.065 1.76345e-13 	0 	0 	
0.075 -3.94791e-24 	0 	0 	
0.085 2.82153e-13 	0 	0 	
0.095 -3.17421e-13 	0 	0 	
0.105 -7.0538e-14 	0 	0 	
0.115 -7.0538e-14 	0 	0 	
0.125 7.0538e-14 	-3.18147e-30 	0 	
0.135 -1.41076e-13 	0 	0 	
0.145 -1.41076e-13 	0 	0 	
0.155 -1.05807e-13 	0 	0 	
0.165 7.0538e-14 	0 	0 	
0.175 -7.0538e-14 	-6.85239e-30 	0 	
0.185 -1.05807e-13 	-6.36293e-30 	0 	
0.195 -7.0538e-14 	0 	0 	
0.205 1.76345e-13 	0 	0 	
0.215 3.52691e-14 	0 	0 	
0.225 -7.0538e-14 	0 	0 	
0.235 -1.76345e-13 	0 	0 	
0.245 2.62892e-24 	0 	0 	
0.255 7.0538e-14 	-7.34184e-30 	0 	
0.265 1.87034e-29 	-6.60765e-30 	0 	
0.275 -1.41076e-13 	0 	0 	
0.285 1.05807e-13 	0 	0 	
0.295 -3.5269e-14 	0 	0 	
0.305 -3.5269e-14 	0 	0 	
0.315 1.05807e-13 	0 	0 	
0.325 7.0538e-14 	0 	0 	
0.335 -3.93988e-24 	0 	0 	
0.345 -1.41076e-13 	0 	0 	
0.355 2.52921e-09 	-6.11819e-30 	0 	
0.365 2.49668e-06 	0 	0 	
0.375 0.000369465 	0 	0 	
0.385 0.0160758 	0 	0 	
0.395 0.271054 	0 	0 	
0.405 2.08278 	0 	0 	
0.415 8.51207 	6.51283e-30 	0 	
0.425 22.0446 	4.169e-30 	0 	
0.435 42.3329 	-1.24645e-30 	0 	
0.445 67.1796 	1.49579e-30 	0 	
0.455 93.5911 	-3.25437e-31 	0 	
0.465 116.602 	-3.51257e-31 	0 	
0.475 128.459 	0 	0 	
0.485 130.189 	-2.76916e-31 	0 	
0.495 130.177 	0 	0 	
0.505 130.14 	-1.84815e-31 	0 	
0.515 130.091 	0 	0 	
0.525 -2149.48 	0 	0 	
0.535 -6.28154e+07 	0 	0 	
0.545 -4.01417e+23 	0 	0 	
0.555 2.97158e+18 	0 	0 	
0.565 -8.81273e+15 	0 	0 	
0.575 -1.50963e+18 	0 	0 	
0.585 9.332e+16 	0 	0 	
0.595 4.42716e+11 	0 	0 	
0.605 695417 	0 	0 	
0.615 0.483471 	0 	0 	
0.625 0.00596213 	0 	0 	
0.635 2.60682e-05 	0 	0 	
0.645 1.88081e-08 	0 	0 	
0.655 7.9355e-14 	0 	0 	
0.665 1.05807e-13 	0 	0 	
0.675 7.93552e-14 	0 	0 	
0.685 -5.29037e-14 	0 	0 	
0.695 1.05807e-13 	0 	0 	
0.705 5.29035e-14 	0 	0 	
0.715 7.93553e-14 	0 	0 	
0.725 -2.93909e-24 	0 	0 	
0.735 1.58711e-13 	0 	0 	
0.745 -5.29037e-14 	0 	0 	
0.755 2.6452e-14 	0 	0 	
0.765 -2.64517e-14 	0 	0 	
0.775 2.6452e-14 	0 	0 	
0.785 -2.6452e-14 	0 	0 	
0.795 1.05807e-13 	0 	0 	
0.805 2.38066e-13 	0 	0 	
0.815 2.64517e-14 	0 	0 	
0.825 -2.6452e-14 	0 	0 	
0.835 7.82347e-24 	0 	0 	
0.845 -7.93555e-14 	0 	0 	
0.855 1.05807e-13 	0 	0 	
0.865 1.32259e-13 	0 	0 	
0.875 -2.11614e-13 	0 	0 	
0.885 2.64515e-14 	0 	0 	
0.895 1.05807e-13 	0 	0 	
0.905 1.95591e-24 	0 	0 	
0.915 5.29035e-14 	0 	0 	
0.925 5.29035e-14 	0 	0 	
0.935 -1.95584e-24 	0 	0 	
0.945 -2.64518e-14 	0 	0 	
0.955 1.32259e-13 	0 	0 	
0.965 -2.64518e-14 	0 	0 	
0.975 -2.6452e-14 	0 	0 	
0.985 2.64515e-14 	0 	0 	
0.995 5.29035e-14 	0 	0 	
