0.005 6.502e-09 	0 	0 	
0.015 -1.7905e-08 	0 	0 	
0.025 6.11355e-09 	0 	0 	
0.035 -1.62669e-09 	0 	0 	
0.045 -2.39994e-08 	0 	0 	
0.055 -5.85075e-09 	0 	0 	
0.065 -7.37625e-09 	0 	0 	
0.075 4.45e-09 	0 	0 	
0.085 1.3809e-09 	0 	0 	
0.095 -1.89862e-08 	0 	0 	
0.105 -2.26487e-08 	0 	0 	
0.115 -6.4195e-09 	0 	0 	
0.125 1.91325e-08 	0 	0 	
0.135 4.9591e-09 	0 	0 	
0.145 -1.858e-09 	0 	0 	
0.155 -1.27853e-08 	0 	0 	
0.165 4.6851e-09 	0 	0 	
0.175 2.0663e-08 	0 	0 	
0.185 1.1412e-09 	0 	0 	
0.195 1.19168e-08 	0 	0 	
0.205 -2.95775e-08 	0 	0 	
0.215 3.3395e-09 	0 	0 	
0.225 1.21325e-08 	0 	0 	
0.235 -2.38016e-08 	0 	0 	
0.245 -1.07579e-08 	0 	0 	
0.255 -2.9777e-09 	0 	0 	
0.265 -7.2094e-09 	0 	0 	
0.275 -2.71654e-08 	0 	0 	
0.285 3.2065e-09 	0 	0 	
0.295 -9.31455e-09 	0 	0 	
0.305 4.31505e-09 	0 	0 	
0.315 5.98255e-09 	0 	0 	
0.325 -1.1294e-08 	0 	0 	
0.335 -1.02777e-08 	0 	0 	
0.345 -2.7734e-09 	0 	0 	
0.355 1.83e-09 	0 	0 	
0.365 3.72745e-09 	0 	0 	
0.375 -1.7293e-09 	0 	0 	
0.385 8.27315e-09 	0 	0 	
0.395 -6.2619e-09 	0 	0 	
0.405 2.14345e-09 	0 	0 	
0.415 3.9565e-09 	0 	0 	
0.425 -3.27685e-09 	0 	0 	
0.435 2.1757e-08 	0 	0 	
0.445 -8.1634e-09 	0 	0 	
0.455 1.26808e-08 	0 	0 	
0.465 -1.08276e-08 	0 	0 	
0.475 1632.7 	0 	0 	
0.485 -5.3456e+13 	0 	0 	
0.495 -4.30131e+25 	0 	0 	
0.505 -3.0419e+27 	0 	0 	
0.515 7.93393e+20 	0 	0 	
0.525 1.05326e+11 	0 	0 	
0.535 -1.95e-10 	0 	0 	
0.545 -3.542e-09 	0 	0 	
0.555 1.34695e-08 	0 	0 	
0.565 1.17469e-08 	0 	0 	
0.575 -1.79472e-08 	0 	0 	
0.585 1.09853e-08 	0 	0 	
0.595 -6.734e-09 	0 	0 	
0.605 -7.86335e-09 	0 	0 	
0.615 1.70928e-08 	0 	0 	
0.625 -1.23069e-08 	0 	0 	
0.635 8.4486e-09 	0 	0 	
0.645 -5.954e-09 	0 	0 	
0.655 -4.312e-10 	0 	0 	
0.665 -1.4955e-09 	0 	0 	
0.675 1.70563e-08 	0 	0 	
0.685 -7.20275e-09 	0 	0 	
0.695 3.973e-09 	0 	0 	
0.705 -4.69555e-09 	0 	0 	
0.715 1.6413e-08 	0 	0 	
0.725 1.93135e-09 	0 	0 	
0.735 2.13942e-08 	0 	0 	
0.745 1.00395e-08 	0 	0 	
0.755 -3.85263e-08 	0 	0 	
0.765 3.251e-09 	0 	0 	
0.775 -5.82e-10 	0 	0 	
0.785 -1.45284e-08 	0 	0 	
0.795 -1.03953e-08 	0 	0 	
0.805 -4.882e-09 	0 	0 	
0.815 1.0811e-08 	0 	0 	
0.825 -4.706e-09 	0 	0 	
0.835 1.7667e-08 	0 	0 	
0.845 -3.3415e-08 	0 	0 	
0.855 1.18526e-08 	0 	0 	
0.865 8.854e-09 	0 	0 	
0.875 4.12e-10 	0 	0 	
0.885 -5.7085e-09 	0 	0 	
0.895 1.81935e-08 	0 	0 	
0.905 -1.9002e-09 	0 	0 	
0.915 2.49247e-08 	0 	0 	
0.925 -1.09492e-08 	0 	0 	
0.935 -1.524e-09 	0 	0 	
0.945 2.2841e-09 	0 	0 	
0.955 -3.38899e-08 	0 	0 	
0.965 8.7099e-09 	0 	0 	
0.975 4.24825e-09 	0 	0 	
0.985 -2.39255e-09 	0 	0 	
0.995 2.12058e-08 	0 	0 	
