0.005 3.12131e-14 	0 	0 	
0.015 1.31789e-13 	0 	0 	
0.025 2.50199e-19 	0 	0 	
0.035 1.2832e-13 	0 	0 	
0.045 3.29471e-14 	0 	0 	
0.055 2.25429e-14 	0 	0 	
0.065 2.60111e-14 	0 	0 	
0.075 1.73406e-14 	0 	0 	
0.085 3.46815e-14 	1.82893e-29 	0 	
0.095 -3.12131e-14 	0 	0 	
0.105 -1.30055e-13 	0 	0 	
0.115 1.09246e-13 	-9.38531e-30 	0 	
0.125 1.82076e-13 	9.38531e-30 	0 	
0.135 1.04042e-14 	0 	0 	
0.145 1.56065e-14 	0 	0 	
0.155 5.72239e-14 	0 	0 	
0.165 -1.21385e-14 	0 	0 	
0.175 -6.06922e-14 	0 	0 	
0.185 1.09246e-13 	0 	0 	
0.195 1.30055e-13 	0 	0 	
0.205 -5.20219e-15 	0 	0 	
0.215 6.41602e-14 	0 	0 	
0.225 -5.20219e-14 	0 	0 	
0.235 6.93625e-14 	0 	0 	
0.245 -7.10965e-14 	0 	0 	
0.255 8.6702e-15 	0 	0 	
0.265 8.67023e-15 	0 	0 	
0.275 -5.20219e-14 	0 	0 	
0.285 -7.97668e-14 	0 	0 	
0.295 5.84552e-12 	0 	0 	
0.305 3.29335e-09 	0 	0 	
0.315 5.68769e-07 	0 	0 	
0.325 3.91937e-05 	0 	0 	
0.335 0.00128099 	0 	0 	
0.345 0.0220399 	0 	0 	
0.355 0.213901 	0 	0 	
0.365 1.23924 	0 	0 	
0.375 4.58488 	0 	0 	
0.385 11.842 	0 	0 	
0.395 23.5085 	0 	0 	
0.405 38.921 	0 	0 	
0.415 56.946 	0 	0 	
0.425 76.4071 	0 	0 	
0.435 95.9668 	0 	0 	
0.445 113.486 	0 	0 	
0.455 125.414 	0 	0 	
0.465 129.716 	0 	0 	
0.475 130.192 	0 	0 	
0.485 130.174 	0 	0 	
0.495 130.15 	0 	0 	
0.505 130.128 	0 	0 	
0.515 130.099 	0 	0 	
0.525 130.049 	0 	0 	
0.535 129.959 	0 	0 	
0.545 -4.29623e+12 	0 	0 	
0.555 -1.56383e+14 	0 	0 	
0.565 -5.07508e+20 	0 	0 	
0.575 -1.35735e+25 	0 	0 	
0.585 -9.59789e+29 	0 	0 	
0.595 2.60031e+31 	0 	0 	
0.605 2.73662e+31 	0 	0 	
0.615 -9.31751e+29 	0 	0 	
0.625 1.44228e+24 	0 	0 	
0.635 1.07728e+22 	0 	0 	
0.645 1.48167e+11 	0 	0 	
0.655 1.06737e+06 	0 	0 	
0.665 0.0480547 	0 	0 	
0.675 0.000832513 	0 	0 	
0.685 8.11954e-06 	0 	0 	
0.695 3.47094e-08 	0 	0 	
0.705 4.88758e-11 	0 	0 	
0.715 -6.50274e-15 	0 	0 	
0.725 1.04044e-13 	0 	0 	
0.735 -8.58358e-14 	0 	0 	
0.745 6.50253e-15 	0 	0 	
0.755 1.04046e-14 	0 	0 	
0.765 8.71363e-14 	0 	0 	
0.775 1.30054e-14 	0 	0 	
0.785 2.60111e-14 	0 	0 	
0.795 3.90163e-15 	0 	0 	
0.805 2.99125e-14 	0 	0 	
0.815 -1.05344e-13 	0 	0 	
0.825 2.6011e-14 	0 	0 	
0.835 6.89287e-14 	0 	0 	
0.845 3.77158e-14 	0 	0 	
0.855 -1.30053e-14 	0 	0 	
0.865 4.42187e-14 	0 	0 	
0.875 -2.6011e-14 	0 	0 	
0.885 -5.20216e-14 	0 	0 	
0.895 -8.06341e-14 	0 	0 	
0.905 -9.23391e-14 	0 	0 	
0.915 3.90164e-15 	0 	0 	
0.925 -9.75409e-14 	0 	0 	
0.935 -1.1965e-13 	0 	0 	
0.945 3.77155e-14 	0 	0 	
0.955 1.69068e-14 	0 	0 	
0.965 2.6011e-14 	0 	0 	
0.975 8.45356e-14 	0 	0 	
0.985 -1.09246e-13 	0 	0 	
0.995 -1.23552e-13 	0 	0 	
