0.005 6.07704e-14 	0 	0 	
0.015 1.20502e-13 	0 	0 	
0.025 1.49893e-13 	0 	0 	
0.035 1.52832e-13 	0 	0 	
0.045 1.38137e-13 	0 	0 	
0.055 9.69898e-14 	0 	0 	
0.065 4.40863e-14 	0 	0 	
0.075 -1.76345e-14 	0 	0 	
0.085 -7.93552e-14 	0 	0 	
0.095 -1.2638e-13 	0 	0 	
0.105 -1.76345e-13 	0 	0 	
0.115 -2.02797e-13 	0 	0 	
0.125 -1.91041e-13 	0 	0 	
0.135 -2.14553e-13 	0 	0 	
0.145 -2.67457e-13 	-3.26305e-31 	0 	
0.155 -2.99787e-13 	0 	0 	
0.165 -3.17421e-13 	0 	0 	
0.175 -2.79213e-13 	0 	0 	
0.185 -1.64589e-13 	0 	0 	
0.195 -4.99645e-14 	0 	0 	
0.205 -1.17564e-14 	0 	0 	
0.215 -1.46955e-14 	0 	0 	
0.225 1.17563e-14 	0 	0 	
0.235 4.11472e-14 	6.52609e-31 	0 	
0.245 6.46598e-14 	0 	0 	
0.255 1.02868e-13 	0 	0 	
0.265 1.2932e-13 	0 	0 	
0.275 1.52832e-13 	0 	0 	
0.285 1.76345e-13 	0 	0 	
0.295 1.49894e-13 	0 	0 	
0.305 9.40508e-14 	0 	0 	
0.315 6.46599e-14 	0 	0 	
0.325 3.233e-14 	0 	0 	
0.335 -4.11471e-14 	0 	0 	
0.345 0.501087 	0 	0 	
0.355 3.98992 	0 	0 	
0.365 12.9685 	0 	0 	
0.375 26.3775 	0 	0 	
0.385 41.7825 	0 	0 	
0.395 57.9307 	0 	0 	
0.405 74.1537 	0 	0 	
0.415 89.8627 	0 	0 	
0.425 104.286 	0 	0 	
0.435 116.274 	0 	0 	
0.445 124.689 	0 	0 	
0.455 129.014 	0 	0 	
0.465 130.168 	0 	0 	
0.475 130.164 	0 	0 	
0.485 130.116 	0 	0 	
0.495 130.193 	0 	0 	
0.505 130.388 	0 	0 	
0.515 130.49 	0 	0 	
0.525 130.365 	0 	0 	
0.535 130.081 	0 	0 	
0.545 129.861 	0 	0 	
0.555 129.846 	0 	0 	
0.565 129.995 	0 	0 	
0.575 130.169 	-2.64351e-30 	0 	
0.585 130.239 	-1.85852e-30 	0 	
0.595 130.171 	0 	0 	
0.605 130.019 	0 	0 	
0.615 129.892 	0 	0 	
0.625 129.814 	0 	0 	
0.635 129.557 	0 	0 	
0.645 127.509 	0 	0 	
0.655 116.312 	0 	0 	
0.665 84.9523 	0 	0 	
0.675 40.2375 	0 	0 	
0.685 8.89773 	0 	0 	
0.695 0.141139 	0 	0 	
0.705 4.40863e-15 	0 	0 	
0.715 -6.61295e-15 	0 	0 	
0.725 3.5269e-14 	0 	0 	
0.735 6.61294e-14 	0 	0 	
0.745 7.05381e-14 	0 	0 	
0.755 5.73122e-14 	0 	0 	
0.765 4.1882e-14 	0 	0 	
0.775 4.84949e-14 	0 	0 	
0.785 4.40863e-14 	0 	0 	
0.795 1.54302e-14 	0 	0 	
0.805 6.61295e-15 	0 	0 	
0.815 1.76345e-14 	-4.89455e-31 	0 	
0.825 2.42474e-14 	0 	0 	
0.835 3.30647e-14 	0 	0 	
0.845 3.96777e-14 	0 	0 	
0.855 2.20431e-14 	0 	0 	
0.865 -6.61296e-15 	0 	0 	
0.875 -2.42475e-14 	0 	0 	
0.885 -4.62906e-14 	0 	0 	
0.895 -5.73122e-14 	0 	0 	
0.905 -3.30647e-14 	0 	0 	
0.915 2.20433e-15 	0 	0 	
0.925 1.98388e-14 	0 	0 	
0.935 2.20432e-14 	0 	0 	
0.945 1.76345e-14 	0 	0 	
0.955 1.32259e-14 	0 	0 	
0.965 3.74733e-14 	0 	0 	
0.975 8.15596e-14 	0 	0 	
0.985 8.81725e-14 	0 	0 	
0.995 5.03593e-14 	0 	0 	
