0.005 1.26218e-29 	0 	0 	
0.015 2.34541e-14 	0 	0 	
0.025 1.1727e-13 	0 	0 	
0.035 1.28997e-13 	0 	0 	
0.045 1.55801e-13 	0 	0 	
0.055 8.54392e-14 	0 	0 	
0.065 3.35056e-14 	0 	0 	
0.075 -9.21405e-14 	0 	0 	
0.085 7.37121e-14 	0 	0 	
0.095 9.54912e-14 	0 	0 	
0.105 4.85835e-14 	0 	0 	
0.115 -3.35055e-15 	0 	0 	
0.125 1.67528e-14 	0 	0 	
0.135 -2.01032e-14 	0 	0 	
0.145 -3.18304e-14 	0 	0 	
0.155 -1.1727e-13 	0 	0 	
0.165 -6.70112e-14 	0 	0 	
0.175 -5.02584e-14 	0 	0 	
0.185 6.03099e-14 	0 	0 	
0.195 3.18302e-14 	0 	0 	
0.205 5.02583e-15 	0 	0 	
0.215 1.44074e-13 	0 	0 	
0.225 -6.70111e-14 	0 	0 	
0.235 4.18818e-14 	0 	0 	
0.245 1.00515e-14 	0 	0 	
0.255 1.00515e-14 	0 	0 	
0.265 3.18303e-14 	0 	0 	
0.275 1.00005e-19 	0 	0 	
0.285 8.87898e-14 	0 	0 	
0.295 1.00517e-13 	0 	0 	
0.305 -1.97683e-13 	0 	0 	
0.315 -6.36604e-14 	0 	0 	
0.325 -1.1727e-13 	0 	0 	
0.335 1.85437e-11 	0 	0 	
0.345 2.90703e-08 	0 	0 	
0.355 6.81972e-06 	0 	0 	
0.365 0.000477576 	0 	0 	
0.375 0.0146548 	0 	0 	
0.385 0.20689 	0 	0 	
0.395 1.48986 	0 	0 	
0.405 6.18113 	0 	0 	
0.415 16.6933 	0 	0 	
0.425 33.3965 	0 	0 	
0.435 54.8901 	0 	0 	
0.445 79.0595 	0 	0 	
0.455 103.01 	0 	0 	
0.465 121.679 	6.84417e-31 	0 	
0.475 129.366 	0 	0 	
0.485 130.201 	0 	0 	
0.495 130.179 	0 	0 	
0.505 130.154 	0 	0 	
0.515 130.134 	0 	0 	
0.525 130.117 	0 	0 	
0.535 130.103 	0 	0 	
0.545 130.089 	0 	0 	
0.555 130.074 	0 	0 	
0.565 130.053 	0 	0 	
0.575 129.919 	0 	0 	
0.585 128.568 	0 	0 	
0.595 122.386 	0 	0 	
0.605 78.5803 	0 	0 	
0.615 12.4243 	0 	0 	
0.625 0.447929 	0 	0 	
0.635 0.00826428 	0 	0 	
0.645 7.96916e-05 	0 	0 	
0.655 2.49502e-07 	0 	0 	
0.665 1.23132e-10 	0 	0 	
0.675 -5.02583e-14 	0 	0 	
0.685 6.15667e-14 	0 	0 	
0.695 -6.40794e-14 	0 	0 	
0.705 -6.031e-14 	0 	0 	
0.715 -8.54394e-14 	0 	0 	
0.725 3.14114e-14 	0 	0 	
0.735 5.02585e-14 	0 	0 	
0.745 8.92085e-14 	0 	0 	
0.755 1.54251e-25 	0 	0 	
0.765 7.6644e-14 	0 	0 	
0.775 5.65404e-14 	0 	0 	
0.785 6.65926e-14 	0 	0 	
0.795 4.39759e-14 	0 	0 	
0.805 -1.4198e-13 	0 	0 	
0.815 -9.80041e-14 	0 	0 	
0.825 -2.51292e-14 	0 	0 	
0.835 -1.43237e-13 	0 	0 	
0.845 1.00515e-14 	0 	0 	
0.855 6.28233e-14 	0 	0 	
0.865 -2.51295e-14 	0 	0 	
0.875 3.14115e-14 	0 	0 	
0.885 -3.76952e-15 	0 	0 	
0.895 -2.76418e-14 	0 	0 	
0.905 2.13598e-14 	0 	0 	
0.915 6.15666e-14 	0 	0 	
0.925 3.14116e-14 	0 	0 	
0.935 4.14628e-14 	0 	0 	
0.945 -4.90019e-14 	0 	0 	
0.955 -4.27197e-14 	0 	0 	
0.965 3.76939e-14 	0 	0 	
0.975 6.28212e-15 	0 	0 	
0.985 2.26163e-14 	0 	0 	
0.995 -1.57058e-13 	0 	0 	
