0.005 -3.68562e-14 	0 	0 	
0.015 1.8428e-14 	0 	0 	
0.025 5.86348e-14 	0 	0 	
0.035 5.8635e-14 	0 	0 	
0.045 2.51288e-14 	0 	0 	
0.055 1.34023e-14 	0 	0 	
0.065 -1.67528e-15 	0 	0 	
0.075 -1.67529e-14 	0 	0 	
0.085 7.03616e-14 	0 	0 	
0.095 4.18822e-14 	0 	0 	
0.105 1.34022e-13 	0 	0 	
0.115 1.00514e-14 	0 	0 	
0.125 1.67528e-13 	0 	0 	
0.135 1.87631e-13 	0 	0 	
0.145 -1.42399e-13 	0 	0 	
0.155 -5.52842e-14 	0 	0 	
0.165 9.38155e-14 	0 	0 	
0.175 1.46897e-25 	0 	0 	
0.185 2.34539e-13 	0 	0 	
0.195 -1.55801e-13 	0 	0 	
0.205 5.02581e-15 	0 	0 	
0.215 9.54909e-14 	0 	0 	
0.225 4.18818e-14 	0 	0 	
0.235 1.67527e-15 	0 	0 	
0.245 1.45749e-13 	0 	0 	
0.255 1.44744e-12 	0 	0 	
0.265 3.16026e-10 	0 	0 	
0.275 3.58648e-08 	0 	0 	
0.285 2.08621e-06 	0 	0 	
0.295 6.66088e-05 	0 	0 	
0.305 0.00130894 	0 	0 	
0.315 0.016399 	0 	0 	
0.325 0.131144 	0 	0 	
0.335 0.698549 	0 	0 	
0.345 2.59283 	0 	0 	
0.355 6.97492 	0 	0 	
0.365 14.599 	0 	0 	
0.375 25.4359 	0 	0 	
0.385 38.853 	0 	0 	
0.395 54.0923 	0 	0 	
0.405 70.4393 	0 	0 	
0.415 87.1579 	0 	0 	
0.425 103.268 	-6.43421e-31 	0 	
0.435 117.116 	0 	0 	
0.445 126.224 	0 	0 	
0.455 129.678 	0 	0 	
0.465 130.183 	1.40186e-30 	0 	
0.475 130.179 	0 	0 	
0.485 130.159 	0 	0 	
0.495 130.144 	0 	0 	
0.505 130.132 	0 	0 	
0.515 130.122 	0 	0 	
0.525 130.114 	0 	0 	
0.535 130.107 	0 	0 	
0.545 130.1 	0 	0 	
0.555 130.093 	0 	0 	
0.565 130.086 	0 	0 	
0.575 130.079 	0 	0 	
0.585 130.07 	0 	0 	
0.595 130.06 	0 	0 	
0.605 130.046 	0 	0 	
0.615 130.026 	0 	0 	
0.625 129.989 	0 	0 	
0.635 129.502 	0 	0 	
0.645 127.961 	0 	0 	
0.655 123.903 	0 	0 	
0.665 99.9494 	0 	0 	
0.675 28.9265 	0 	0 	
0.685 1.86693 	0 	0 	
0.695 0.070141 	0 	0 	
0.705 0.00204087 	0 	0 	
0.715 4.22483e-05 	0 	0 	
0.725 5.25454e-07 	0 	0 	
0.735 3.58742e-09 	0 	0 	
0.745 1.33939e-11 	0 	0 	
0.755 5.40277e-14 	0 	0 	
0.765 -1.75903e-14 	0 	0 	
0.775 5.65408e-14 	0 	0 	
0.785 1.08055e-13 	0 	0 	
0.795 9.92603e-14 	0 	0 	
0.805 -1.00517e-14 	0 	0 	
0.815 -3.2668e-14 	0 	0 	
0.825 5.02584e-14 	0 	0 	
0.835 -2.51292e-14 	0 	0 	
0.845 2.76423e-14 	0 	0 	
0.855 6.2823e-14 	0 	0 	
0.865 7.41312e-14 	0 	0 	
0.875 6.2822e-15 	0 	0 	
0.885 8.81435e-25 	0 	0 	
0.895 1.10568e-13 	0 	0 	
0.905 2.88987e-14 	0 	0 	
0.915 8.81435e-25 	0 	0 	
0.925 1.06799e-13 	0 	0 	
0.935 -1.23133e-13 	0 	0 	
0.945 6.28231e-14 	0 	0 	
0.955 1.63339e-14 	0 	0 	
0.965 2.13596e-14 	0 	0 	
0.975 3.14115e-14 	0 	0 	
0.985 2.26163e-14 	0 	0 	
0.995 -3.5181e-14 	0 	0 	
