0.005 5.19339e-14 	0 	0 	
0.015 2.34536e-14 	0 	0 	
0.025 1.08893e-13 	0 	0 	
0.035 -9.21406e-14 	0 	0 	
0.045 5.52842e-14 	0 	0 	
0.055 1.45749e-13 	0 	0 	
0.065 3.6856e-14 	0 	0 	
0.075 1.67528e-14 	0 	0 	
0.085 8.20886e-14 	0 	0 	
0.095 1.10568e-13 	0 	0 	
0.105 -3.35037e-15 	0 	0 	
0.115 -9.71659e-14 	0 	0 	
0.125 -1.50775e-13 	0 	0 	
0.135 6.53357e-14 	0 	0 	
0.145 -8.71146e-14 	0 	0 	
0.155 7.87381e-14 	0 	0 	
0.165 -1.62502e-13 	0 	0 	
0.175 -4.18818e-14 	0 	0 	
0.185 -4.02067e-14 	0 	0 	
0.195 8.54395e-14 	0 	0 	
0.205 -1.34021e-14 	0 	0 	
0.215 -7.20373e-14 	0 	0 	
0.225 -1.08893e-13 	0 	0 	
0.235 -1.2062e-13 	0 	0 	
0.245 5.02568e-15 	0 	0 	
0.255 -2.17785e-14 	0 	0 	
0.265 1.2062e-13 	0 	0 	
0.275 1.75904e-13 	0 	0 	
0.285 -3.01549e-14 	0 	0 	
0.295 -6.86863e-14 	0 	0 	
0.305 4.08701e-11 	0 	0 	
0.315 1.65582e-08 	0 	0 	
0.325 2.08175e-06 	0 	0 	
0.335 0.00011092 	0 	0 	
0.345 0.00313337 	0 	0 	
0.355 0.046275 	0 	0 	
0.365 0.387238 	0 	0 	
0.375 1.99143 	0 	0 	
0.385 6.62509 	0 	0 	
0.395 15.7387 	0 	0 	
0.405 29.4565 	0 	0 	
0.415 46.8113 	0 	0 	
0.425 66.4992 	0 	0 	
0.435 87.1298 	0 	0 	
0.445 106.738 	0 	0 	
0.455 121.905 	0 	0 	
0.465 128.996 	6.98923e-31 	0 	
0.475 130.172 	0 	0 	
0.485 130.186 	0 	0 	
0.495 130.161 	0 	0 	
0.505 130.143 	0 	0 	
0.515 130.129 	0 	0 	
0.525 130.117 	0 	0 	
0.535 130.106 	0 	0 	
0.545 130.096 	0 	0 	
0.555 130.086 	0 	0 	
0.565 130.076 	0 	0 	
0.575 130.066 	0 	0 	
0.585 130.05 	0 	0 	
0.595 129.997 	0 	0 	
0.605 129.106 	0 	0 	
0.615 122.85 	0 	0 	
0.625 102.385 	0 	0 	
0.635 40.8726 	0 	0 	
0.645 3.25063 	0 	0 	
0.655 0.108409 	0 	0 	
0.665 0.00224131 	0 	0 	
0.675 2.88935e-05 	0 	0 	
0.685 1.7126e-07 	0 	0 	
0.695 3.31243e-10 	0 	0 	
0.705 1.99777e-13 	0 	0 	
0.715 -8.79517e-15 	0 	0 	
0.725 8.79523e-14 	0 	0 	
0.735 4.77454e-14 	0 	0 	
0.745 -2.51295e-15 	0 	0 	
0.755 3.14116e-14 	0 	0 	
0.765 -1.39467e-13 	0 	0 	
0.775 -1.3821e-13 	0 	0 	
0.785 9.42344e-14 	0 	0 	
0.795 -2.51292e-14 	0 	0 	
0.805 -2.51293e-14 	0 	0 	
0.815 8.66956e-14 	0 	0 	
0.825 -5.02585e-14 	0 	0 	
0.835 2.26161e-14 	0 	0 	
0.845 -3.895e-14 	0 	0 	
0.855 5.77973e-14 	0 	0 	
0.865 -2.51091e-30 	0 	0 	
0.875 2.51292e-14 	0 	0 	
0.885 3.64374e-14 	0 	0 	
0.895 6.15666e-14 	0 	0 	
0.905 1.13081e-14 	0 	0 	
0.915 1.16851e-13 	0 	0 	
0.925 -6.28232e-14 	0 	0 	
0.935 -2.26163e-14 	0 	0 	
0.945 -3.39245e-14 	0 	0 	
0.955 -1.00516e-14 	0 	0 	
0.965 2.01032e-14 	0 	0 	
0.975 -8.16701e-14 	0 	0 	
0.985 8.79537e-15 	0 	0 	
0.995 -1.53288e-13 	0 	0 	
