0.005 4.90141e-14 	0 	0 	
0.015 8.22944e-14 	0 	0 	
0.025 9.69898e-14 	0 	0 	
0.035 9.11116e-14 	0 	0 	
0.045 6.7599e-14 	0 	0 	
0.055 2.93909e-14 	0 	0 	
0.065 -5.87815e-15 	0 	0 	
0.075 -1.76345e-14 	0 	0 	
0.085 -1.46954e-14 	0 	0 	
0.095 -2.9391e-15 	0 	0 	
0.105 -1.17563e-14 	0 	0 	
0.115 -5.29035e-14 	0 	0 	
0.125 -9.99288e-14 	0 	0 	
0.135 -1.46954e-13 	0 	0 	
0.145 -1.85162e-13 	-3.26305e-31 	0 	
0.155 -1.85163e-13 	0 	0 	
0.165 -1.49894e-13 	0 	0 	
0.175 -1.20503e-13 	0 	0 	
0.185 -7.93554e-14 	0 	0 	
0.195 -5.84725e-25 	0 	0 	
0.205 5.58426e-14 	0 	0 	
0.215 6.17208e-14 	0 	0 	
0.225 7.93552e-14 	0 	0 	
0.235 9.40505e-14 	6.52609e-31 	0 	
0.245 6.75989e-14 	0 	0 	
0.255 4.40863e-14 	0 	0 	
0.265 3.233e-14 	0 	0 	
0.275 1.76345e-14 	0 	0 	
0.285 4.11471e-14 	0 	0 	
0.295 7.6416e-14 	0 	0 	
0.305 5.58425e-14 	0 	0 	
0.315 2.64518e-14 	0 	0 	
0.325 2.35127e-14 	0 	0 	
0.335 -5.8782e-15 	0 	0 	
0.345 -5.58426e-14 	0 	0 	
0.355 -6.7599e-14 	0 	0 	
0.365 -5.29036e-14 	0 	0 	
0.375 -4.40863e-14 	0 	0 	
0.385 -4.99644e-14 	0 	0 	
0.395 -6.46599e-14 	0 	0 	
0.405 -5.58426e-14 	0 	0 	
0.415 1.50861 	0 	0 	
0.425 9.42279 	0 	0 	
0.435 27.0614 	0 	0 	
0.445 51.2361 	0 	0 	
0.455 76.814 	0 	0 	
0.465 100.091 	0 	0 	
0.475 117.61 	0 	0 	
0.485 127.646 	0 	0 	
0.495 131.468 	0 	0 	
0.505 131.369 	0 	0 	
0.515 129.794 	0 	0 	
0.525 128.953 	0 	0 	
0.535 129.721 	0 	0 	
0.545 131.229 	0 	0 	
0.555 131.559 	0 	0 	
0.565 127.065 	0 	0 	
0.575 107.037 	-1.05625e-30 	0 	
0.585 64.9444 	-2.0233e-31 	0 	
0.595 22.1456 	0 	0 	
0.605 2.76328 	0 	0 	
0.615 -6.39251e-14 	0 	0 	
0.625 -8.81725e-14 	0 	0 	
0.635 -8.37638e-14 	0 	0 	
0.645 -3.08603e-14 	0 	0 	
0.655 2.20433e-15 	0 	0 	
0.665 -3.08604e-14 	0 	0 	
0.675 -4.62906e-14 	0 	0 	
0.685 1.54302e-14 	0 	0 	
0.695 5.95165e-14 	0 	0 	
0.705 3.74734e-14 	0 	0 	
0.715 3.08604e-14 	0 	0 	
0.725 7.49467e-14 	0 	0 	
0.735 1.10216e-13 	0 	0 	
0.745 8.3764e-14 	0 	0 	
0.755 2.42475e-14 	0 	0 	
0.765 -1.98388e-14 	0 	0 	
0.775 -3.74734e-14 	0 	0 	
0.785 -3.52691e-14 	0 	0 	
0.795 -4.1882e-14 	0 	0 	
0.805 -4.62906e-14 	0 	0 	
0.815 -2.42475e-14 	-4.89455e-31 	0 	
0.825 -4.40863e-15 	0 	0 	
0.835 6.61294e-15 	0 	0 	
0.845 2.20431e-14 	0 	0 	
0.855 4.40863e-14 	0 	0 	
0.865 6.83338e-14 	0 	0 	
0.875 4.62906e-14 	0 	0 	
0.885 -3.5269e-14 	0 	0 	
0.895 -7.7151e-14 	0 	0 	
0.905 -3.74733e-14 	0 	0 	
0.915 1.32259e-14 	0 	0 	
0.925 2.86561e-14 	0 	0 	
0.935 2.64518e-14 	0 	0 	
0.945 3.74733e-14 	0 	0 	
0.955 4.40863e-14 	0 	0 	
0.965 2.42475e-14 	0 	0 	
0.975 4.40863e-15 	0 	0 	
0.985 0 	0 	0 	
0.995 0 	0 	0 	
