0.005 1.22523e-13 	0 	0 	
0.015 2.95746e-14 	0 	0 	
0.025 -4.22494e-14 	0 	0 	
0.035 5.06992e-14 	0 	0 	
0.045 4.22494e-15 	0 	0 	
0.055 -1.64773e-13 	0 	0 	
0.065 8.44988e-15 	-6.33233e-30 	0 	
0.075 -5.49242e-14 	0 	0 	
0.085 -7.60489e-14 	0 	0 	
0.095 -5.49242e-14 	0 	0 	
0.105 -5.49242e-14 	0 	0 	
0.115 -3.80244e-14 	0 	0 	
0.125 -5.91491e-14 	0 	0 	
0.135 2.95746e-14 	0 	0 	
0.145 -8.44988e-15 	0 	0 	
0.155 -6.7599e-14 	0 	0 	
0.165 2.40821e-13 	0 	0 	
0.175 1.18298e-13 	0 	0 	
0.185 -1.68997e-14 	0 	0 	
0.195 -3.37995e-14 	0 	0 	
0.205 -1.26748e-14 	0 	0 	
0.215 4.22494e-14 	0 	0 	
0.225 -5.91491e-14 	0 	0 	
0.235 -1.26748e-13 	0 	0 	
0.245 -2.95746e-14 	0 	0 	
0.255 -4.22494e-15 	0 	0 	
0.265 -2.95746e-14 	0 	0 	
0.275 -5.91491e-14 	0 	0 	
0.285 -3.80244e-14 	0 	0 	
0.295 5.91491e-14 	0 	0 	
0.305 -6.33741e-14 	0 	0 	
0.315 -6.7599e-14 	0 	0 	
0.325 1.64773e-13 	0 	0 	
0.335 3.98538e-10 	0 	0 	
0.345 2.25741e-07 	0 	0 	
0.355 3.00735e-05 	0 	0 	
0.365 0.00152406 	0 	0 	
0.375 0.0347855 	0 	0 	
0.385 0.384234 	0 	0 	
0.395 2.28155 	0 	0 	
0.405 8.16848 	0 	0 	
0.415 19.931 	0 	0 	
0.425 37.3663 	0 	0 	
0.435 58.9201 	0 	0 	
0.445 82.5734 	1.50813e-30 	0 	
0.455 105.516 	0 	0 	
0.465 122.771 	0 	0 	
0.475 129.53 	0 	0 	
0.485 130.202 	5.30744e-31 	0 	
0.495 130.177 	0 	0 	
0.505 130.153 	0 	0 	
0.515 130.134 	1.77458e-31 	0 	
0.525 130.118 	0 	0 	
0.535 130.104 	0 	0 	
0.545 130.091 	0 	0 	
0.555 130.077 	-4.85576e-30 	0 	
0.565 130.06 	0 	0 	
0.575 130.018 	0 	0 	
0.585 129.681 	0 	0 	
0.595 120.659 	0 	0 	
0.605 91.1984 	0 	0 	
0.615 39.6636 	0 	0 	
0.625 2.65094 	0 	0 	
0.635 0.0669461 	0 	0 	
0.645 0.000947723 	0 	0 	
0.655 6.06754e-06 	0 	0 	
0.665 1.07766e-08 	0 	0 	
0.675 1.93291e-12 	0 	0 	
0.685 -2.85183e-14 	0 	0 	
0.695 -3.1685e-15 	0 	0 	
0.705 -3.16862e-15 	0 	0 	
0.715 -7.28799e-14 	0 	0 	
0.725 -6.33742e-14 	5.27696e-30 	0 	
0.735 -5.0699e-14 	0 	0 	
0.745 -8.55547e-14 	0 	0 	
0.755 -3.1687e-14 	0 	0 	
0.765 -4.75303e-14 	-1.47755e-29 	0 	
0.775 6.65429e-14 	0 	0 	
0.785 6.97118e-14 	0 	0 	
0.795 -1.99628e-13 	0 	0 	
0.805 6.97112e-14 	0 	0 	
0.815 3.80245e-14 	7.73952e-30 	0 	
0.825 1.90123e-14 	3.51796e-30 	0 	
0.835 -2.85187e-14 	0 	0 	
0.845 -1.80616e-13 	0 	0 	
0.855 -2.21806e-14 	0 	0 	
0.865 -1.65275e-25 	0 	0 	
0.875 5.06993e-14 	0 	0 	
0.885 2.21812e-14 	0 	0 	
0.895 -2.53496e-14 	0 	0 	
0.905 7.28801e-14 	0 	0 	
0.915 9.5065e-15 	0 	0 	
0.925 8.23864e-14 	0 	0 	
0.935 7.60488e-14 	0 	0 	
0.945 3.16877e-15 	0 	0 	
0.955 5.70364e-14 	0 	0 	
0.965 5.38677e-14 	0 	0 	
0.975 -9.82295e-14 	0 	0 	
0.985 9.50606e-15 	0 	0 	
0.995 -1.07736e-13 	0 	0 	
