0.005 -2.9391e-14 	0 	0 	
0.015 1.46952e-14 	0 	0 	
0.025 -1.02868e-13 	0 	0 	
0.035 4.40862e-14 	0 	0 	
0.045 4.40862e-14 	0 	0 	
0.055 7.3477e-14 	0 	0 	
0.065 -7.34769e-14 	0 	0 	
0.075 -1.46953e-14 	0 	0 	
0.085 -7.3477e-14 	0 	0 	
0.095 -7.3477e-14 	0 	0 	
0.105 1.46955e-14 	0 	0 	
0.115 -7.34769e-14 	0 	0 	
0.125 2.9391e-14 	0 	0 	
0.135 1.17563e-13 	0 	0 	
0.145 1.9104e-13 	0 	0 	
0.155 2.20431e-13 	0 	0 	
0.165 2.20431e-13 	0 	0 	
0.175 1.91041e-13 	0 	0 	
0.185 9.1364e-24 	0 	0 	
0.195 -1.46953e-14 	0 	0 	
0.205 -4.40862e-14 	0 	0 	
0.215 -1.46956e-14 	0 	0 	
0.225 -1.46954e-13 	0 	0 	
0.235 -8.81725e-14 	0 	0 	
0.245 2.50037e-20 	0 	0 	
0.255 -1.46955e-14 	0 	0 	
0.265 -8.81725e-14 	0 	0 	
0.275 -1.02868e-13 	0 	0 	
0.285 -1.32259e-13 	0 	0 	
0.295 -4.40864e-14 	0 	0 	
0.305 2.93908e-14 	0 	0 	
0.315 8.81725e-14 	0 	0 	
0.325 1.46954e-13 	0 	0 	
0.335 1.32259e-13 	0 	0 	
0.345 1.6165e-13 	0 	0 	
0.355 7.3477e-14 	0 	0 	
0.365 1.32259e-13 	0 	0 	
0.375 1.82796e-09 	0 	0 	
0.385 1.58628e-06 	0 	0 	
0.395 0.000249762 	0 	0 	
0.405 0.0122137 	0 	0 	
0.415 0.235288 	0 	0 	
0.425 2.05233 	0 	0 	
0.435 9.28505 	0 	0 	
0.445 25.7732 	0 	0 	
0.455 51.5647 	0 	0 	
0.465 83.0843 	0 	0 	
0.475 112.931 	0 	0 	
0.485 128.419 	0 	0 	
0.495 130.213 	0 	0 	
0.505 130.181 	0 	0 	
0.515 130.146 	0 	0 	
0.525 130.116 	0 	0 	
0.535 130.078 	0 	0 	
0.545 129.853 	0 	0 	
0.555 127.357 	0 	0 	
0.565 110.144 	0 	0 	
0.575 51.2375 	0 	0 	
0.585 5.13917 	0 	0 	
0.595 0.162625 	0 	0 	
0.605 0.00227767 	0 	0 	
0.615 1.09293e-05 	0 	0 	
0.625 9.9955e-09 	0 	0 	
0.635 2.09411e-13 	0 	0 	
0.645 3.30648e-14 	0 	0 	
0.655 3.30649e-14 	0 	0 	
0.665 6.31089e-30 	0 	0 	
0.675 1.10216e-14 	0 	0 	
0.685 5.51079e-14 	0 	0 	
0.695 -1.10216e-14 	0 	0 	
0.705 -2.20432e-14 	0 	0 	
0.715 -4.99973e-20 	0 	0 	
0.725 4.40864e-14 	0 	0 	
0.735 -6.61294e-14 	0 	0 	
0.745 -3.30647e-14 	0 	0 	
0.755 -8.81726e-14 	0 	0 	
0.765 -5.5108e-14 	0 	0 	
0.775 -9.91942e-14 	0 	0 	
0.785 -1.21237e-13 	0 	0 	
0.795 -6.61295e-14 	0 	0 	
0.805 1.10216e-14 	0 	0 	
0.815 -4.40863e-14 	0 	0 	
0.825 -1.10216e-14 	0 	0 	
0.835 8.81723e-14 	0 	0 	
0.845 9.91942e-14 	0 	0 	
0.855 6.61295e-14 	0 	0 	
0.865 5.51078e-14 	0 	0 	
0.875 -1.10215e-14 	0 	0 	
0.885 -3.30647e-14 	0 	0 	
0.895 4.99973e-20 	0 	0 	
0.905 1.35824e-24 	0 	0 	
0.915 -1.10216e-14 	0 	0 	
0.925 -7.71509e-14 	0 	0 	
0.935 -5.51078e-14 	0 	0 	
0.945 7.7151e-14 	0 	0 	
0.955 -1.25004e-19 	0 	0 	
0.965 7.71509e-14 	0 	0 	
0.975 8.81725e-14 	0 	0 	
0.985 4.40862e-14 	0 	0 	
0.995 5.51079e-14 	0 	0 	
