0.005 7.26256e-14 	0 	0 	
0.015 8.13677e-14 	0 	0 	
0.025 9.75073e-14 	0 	0 	
0.035 5.3797e-15 	0 	0 	
0.045 -6.45568e-14 	0 	0 	
0.055 -1.10956e-13 	0 	0 	
0.065 5.51421e-14 	0 	0 	
0.075 -1.21043e-13 	0 	0 	
0.085 -4.16925e-14 	0 	0 	
0.095 -2.35364e-14 	0 	0 	
0.105 -2.50829e-13 	0 	0 	
0.115 -4.10204e-14 	5.59939e-30 	0 	
0.125 -1.68116e-14 	0 	0 	
0.135 3.69855e-14 	0 	0 	
0.145 -3.56405e-14 	0 	0 	
0.155 -2.28638e-14 	0 	0 	
0.165 8.06956e-15 	0 	0 	
0.175 -1.10956e-13 	0 	0 	
0.185 -1.22388e-13 	0 	0 	
0.195 -1.10957e-13 	0 	0 	
0.205 3.36232e-14 	0 	0 	
0.215 6.72466e-16 	0 	0 	
0.225 -1.68115e-14 	0 	0 	
0.235 3.02608e-14 	0 	0 	
0.245 -3.83304e-14 	0 	0 	
0.255 -5.78319e-14 	0 	0 	
0.265 -9.21274e-14 	0 	0 	
0.275 4.70726e-14 	0 	0 	
0.285 -6.79185e-14 	0 	0 	
0.295 -4.10204e-14 	0 	0 	
0.305 2.08465e-14 	0 	0 	
0.315 -6.72465e-14 	0 	0 	
0.325 -4.03475e-14 	0 	0 	
0.335 4.70732e-15 	0 	0 	
0.345 -4.43826e-14 	0 	0 	
0.355 1.18353e-13 	0 	0 	
0.365 8.27127e-14 	0 	0 	
0.375 6.02192e-11 	0 	0 	
0.385 7.15018e-07 	0 	0 	
0.395 0.000241993 	0 	0 	
0.405 0.0174051 	0 	0 	
0.415 0.36849 	0 	0 	
0.425 3.06739 	0 	0 	
0.435 12.6699 	0 	0 	
0.445 32.0843 	0 	0 	
0.455 59.7651 	0 	0 	
0.465 91.3484 	0 	0 	
0.475 118.507 	0 	0 	
0.485 129.49 	0 	0 	
0.495 130.207 	0 	0 	
0.505 130.169 	0 	0 	
0.515 130.139 	0 	0 	
0.525 130.113 	0 	0 	
0.535 130.087 	0 	0 	
0.545 130.031 	0 	0 	
0.555 129.298 	0 	0 	
0.565 121.134 	0 	0 	
0.575 80.9361 	0 	0 	
0.585 12.5075 	0 	0 	
0.595 0.317041 	0 	0 	
0.605 0.00260728 	0 	0 	
0.615 5.36563e-06 	0 	0 	
0.625 3.1712e-10 	0 	0 	
0.635 5.29565e-14 	0 	0 	
0.645 2.37041e-14 	0 	0 	
0.655 3.17739e-14 	0 	0 	
0.665 2.52175e-14 	0 	0 	
0.675 3.53042e-14 	0 	0 	
0.685 1.28609e-13 	0 	0 	
0.695 -9.58242e-15 	0 	0 	
0.705 5.6991e-14 	0 	0 	
0.715 -5.14432e-14 	0 	0 	
0.725 1.51304e-14 	0 	0 	
0.735 4.03466e-15 	0 	0 	
0.745 6.85912e-14 	0 	0 	
0.755 -4.33741e-14 	0 	0 	
0.765 3.32868e-14 	0 	0 	
0.775 -4.28694e-14 	0 	0 	
0.785 8.81476e-25 	0 	0 	
0.795 -4.3878e-14 	0 	0 	
0.805 -1.76521e-14 	0 	0 	
0.815 5.04345e-14 	0 	0 	
0.825 -7.56525e-14 	0 	0 	
0.835 1.27096e-13 	0 	0 	
0.845 -2.52175e-14 	0 	0 	
0.855 4.89215e-14 	0 	0 	
0.865 6.45564e-14 	0 	0 	
0.875 1.26086e-14 	0 	0 	
0.885 5.64869e-14 	0 	0 	
0.895 -1.9165e-14 	0 	0 	
0.905 -1.66436e-14 	0 	0 	
0.915 1.21046e-14 	0 	0 	
0.925 -6.30432e-14 	0 	0 	
0.935 -3.42956e-14 	0 	0 	
0.945 -1.02887e-13 	0 	0 	
0.955 3.17737e-14 	0 	0 	
0.965 -9.9861e-14 	0 	0 	
0.975 -3.53042e-14 	0 	0 	
0.985 1.86609e-14 	0 	0 	
0.995 2.87479e-14 	0 	0 	
