0.005 1.68788e-13 	0 	0 	
0.015 6.18666e-14 	0 	0 	
0.025 4.37103e-14 	0 	0 	
0.035 2.00394e-13 	0 	0 	
0.045 7.39708e-15 	0 	0 	
0.055 3.63131e-14 	0 	0 	
0.065 5.85043e-14 	0 	0 	
0.075 6.38842e-14 	0 	0 	
0.085 -8.06974e-15 	0 	0 	
0.095 -1.45924e-13 	0 	0 	
0.105 -1.87617e-13 	0 	0 	
0.115 4.5055e-14 	6.99922e-30 	0 	
0.125 -8.40579e-14 	0 	0 	
0.135 -1.00869e-13 	0 	0 	
0.145 -2.0174e-15 	0 	0 	
0.155 9.95245e-14 	0 	0 	
0.165 -7.66608e-14 	0 	0 	
0.175 -4.37101e-14 	0 	0 	
0.185 2.15188e-14 	0 	0 	
0.195 -1.0087e-13 	0 	0 	
0.205 6.45564e-14 	0 	0 	
0.215 -2.01739e-15 	0 	0 	
0.225 -5.71591e-14 	0 	0 	
0.235 -8.74204e-15 	0 	0 	
0.245 2.35362e-14 	0 	0 	
0.255 -2.89158e-14 	0 	0 	
0.265 7.06086e-14 	0 	0 	
0.275 3.36234e-14 	0 	0 	
0.285 -1.97704e-13 	0 	0 	
0.295 8.33856e-14 	0 	0 	
0.305 -3.90029e-14 	0 	0 	
0.315 3.36231e-14 	0 	0 	
0.325 -3.3623e-14 	0 	0 	
0.335 -8.67476e-14 	0 	0 	
0.345 8.70436e-12 	0 	0 	
0.355 2.45141e-08 	0 	0 	
0.365 8.64349e-06 	0 	0 	
0.375 0.000768454 	0 	0 	
0.385 0.0240749 	0 	0 	
0.395 0.331775 	0 	0 	
0.405 2.29978 	0 	0 	
0.415 8.85594 	0 	0 	
0.425 22.3037 	0 	0 	
0.435 42.3751 	0 	0 	
0.445 66.961 	0 	0 	
0.455 93.1385 	0 	0 	
0.465 116.098 	0 	0 	
0.475 128.217 	0 	0 	
0.485 130.182 	0 	0 	
0.495 130.186 	0 	0 	
0.505 130.158 	0 	0 	
0.515 130.135 	0 	0 	
0.525 130.117 	0 	0 	
0.535 130.1 	0 	0 	
0.545 130.084 	0 	0 	
0.555 130.064 	0 	0 	
0.565 129.989 	0 	0 	
0.575 129.176 	0 	0 	
0.585 124.196 	0 	0 	
0.595 90.6479 	0 	0 	
0.605 18.1417 	0 	0 	
0.615 0.704616 	0 	0 	
0.625 0.0126509 	0 	0 	
0.635 9.36661e-05 	0 	0 	
0.645 1.94001e-07 	0 	0 	
0.655 5.33311e-11 	0 	0 	
0.665 5.64867e-14 	0 	0 	
0.675 8.57391e-14 	0 	0 	
0.685 1.42226e-13 	0 	0 	
0.695 3.68172e-14 	0 	0 	
0.705 -4.53941e-15 	0 	0 	
0.715 3.02608e-15 	0 	0 	
0.725 4.03479e-14 	0 	0 	
0.735 -8.37217e-14 	0 	0 	
0.745 -1.46259e-14 	0 	0 	
0.755 -5.74953e-14 	0 	0 	
0.765 7.5652e-14 	0 	0 	
0.775 -1.84087e-13 	0 	0 	
0.785 -1.0087e-15 	0 	0 	
0.795 -5.69916e-14 	0 	0 	
0.805 -3.68172e-14 	0 	0 	
0.815 2.01743e-15 	0 	0 	
0.825 6.80867e-14 	0 	0 	
0.835 -4.28912e-29 	0 	0 	
0.845 -9.1791e-14 	0 	0 	
0.855 -4.74084e-14 	0 	0 	
0.865 -6.05215e-15 	0 	0 	
0.875 1.0087e-13 	0 	0 	
0.885 7.0104e-14 	0 	0 	
0.895 1.12469e-13 	0 	0 	
0.905 8.32171e-14 	0 	0 	
0.915 -6.05204e-15 	0 	0 	
0.925 2.52171e-14 	0 	0 	
0.935 -3.6313e-14 	0 	0 	
0.945 2.11825e-14 	0 	0 	
0.955 -6.05219e-14 	0 	0 	
0.965 -4.99307e-14 	0 	0 	
0.975 3.02366e-29 	0 	0 	
0.985 3.58086e-14 	0 	0 	
0.995 2.16869e-14 	0 	0 	
