0.005 4.84173e-14 	0 	0 	
0.015 3.56406e-14 	0 	0 	
0.025 4.70723e-14 	0 	0 	
0.035 2.32672e-13 	0 	0 	
0.045 7.46431e-14 	0 	0 	
0.055 -3.36233e-14 	0 	0 	
0.065 -6.72463e-14 	0 	0 	
0.075 9.51895e-29 	0 	0 	
0.085 5.44695e-14 	0 	0 	
0.095 6.52291e-14 	0 	0 	
0.105 -4.03478e-15 	0 	0 	
0.115 -1.88291e-14 	5.83269e-30 	0 	
0.125 -6.7246e-14 	0 	0 	
0.135 4.50552e-14 	0 	0 	
0.145 -1.62063e-13 	0 	0 	
0.155 6.65739e-14 	0 	0 	
0.165 2.8916e-14 	0 	0 	
0.175 -3.02608e-14 	0 	0 	
0.185 -3.96752e-14 	0 	0 	
0.195 -1.54666e-14 	0 	0 	
0.205 -1.7484e-14 	0 	0 	
0.215 1.34493e-15 	0 	0 	
0.225 4.03155e-29 	0 	0 	
0.235 -7.26257e-14 	0 	0 	
0.245 -8.67473e-14 	0 	0 	
0.255 -1.4458e-13 	0 	0 	
0.265 -7.80056e-14 	0 	0 	
0.275 1.0087e-13 	0 	0 	
0.285 -2.01739e-15 	0 	0 	
0.295 1.15664e-13 	0 	0 	
0.305 1.54666e-14 	0 	0 	
0.315 -2.15188e-14 	0 	0 	
0.325 3.36234e-15 	0 	0 	
0.335 4.63999e-14 	0 	0 	
0.345 -7.86778e-14 	0 	0 	
0.355 -1.26423e-13 	0 	0 	
0.365 5.64869e-14 	0 	0 	
0.375 1.84749e-08 	0 	0 	
0.385 1.57213e-05 	0 	0 	
0.395 0.00189877 	0 	0 	
0.405 0.0696282 	0 	0 	
0.415 0.917961 	0 	0 	
0.425 5.42958 	0 	0 	
0.435 17.8208 	0 	0 	
0.445 39.276 	0 	0 	
0.455 67.3796 	0 	0 	
0.465 97.6635 	0 	0 	
0.475 121.625 	0 	0 	
0.485 129.805 	0 	0 	
0.495 130.203 	0 	0 	
0.505 130.167 	0 	0 	
0.515 130.138 	0 	0 	
0.525 130.114 	0 	0 	
0.535 130.092 	0 	0 	
0.545 130.059 	0 	0 	
0.555 129.785 	0 	0 	
0.565 127.582 	0 	0 	
0.575 108.494 	0 	0 	
0.585 36.9192 	0 	0 	
0.595 1.8178 	0 	0 	
0.605 0.0268692 	0 	0 	
0.615 0.000146798 	0 	0 	
0.625 1.23893e-07 	0 	0 	
0.635 8.57394e-15 	0 	0 	
0.645 1.91653e-14 	0 	0 	
0.655 -1.16467e-29 	0 	0 	
0.665 6.05204e-15 	0 	0 	
0.675 5.29564e-14 	0 	0 	
0.685 4.58954e-14 	0 	0 	
0.695 4.84173e-14 	0 	0 	
0.705 4.94259e-14 	0 	0 	
0.715 -2.72349e-14 	0 	0 	
0.725 -3.27826e-14 	0 	0 	
0.735 -5.0435e-14 	0 	0 	
0.745 3.98437e-14 	0 	0 	
0.755 5.0435e-14 	0 	0 	
0.765 -5.69913e-14 	0 	0 	
0.775 7.56525e-15 	0 	0 	
0.785 9.68347e-14 	0 	0 	
0.795 4.53891e-15 	0 	0 	
0.805 -2.37044e-14 	0 	0 	
0.815 -4.84171e-14 	0 	0 	
0.825 -2.77389e-14 	0 	0 	
0.835 1.06922e-13 	0 	0 	
0.845 -1.71479e-14 	0 	0 	
0.855 -4.58959e-14 	0 	0 	
0.865 -8.84701e-29 	0 	0 	
0.875 -1.26085e-14 	0 	0 	
0.885 -5.04569e-16 	0 	0 	
0.895 6.95998e-14 	0 	0 	
0.905 4.99304e-14 	0 	0 	
0.915 -9.12869e-14 	0 	0 	
0.925 -5.29563e-14 	0 	0 	
0.935 -4.58959e-14 	0 	0 	
0.945 -2.11826e-14 	0 	0 	
0.955 7.46434e-14 	0 	0 	
0.965 -1.00365e-13 	0 	0 	
0.975 -7.06087e-14 	0 	0 	
0.985 -1.51297e-15 	0 	0 	
0.995 -1.15495e-13 	0 	0 	
