0.005 0 	0 	0 	
0.015 0 	0 	0 	
0.025 0 	0 	0 	
0.035 0 	0 	0 	
0.045 0 	0 	0 	
0.055 0 	0 	0 	
0.065 5.87817e-15 	0 	0 	
0.075 2.9391e-15 	0 	0 	
0.085 -8.81725e-15 	0 	0 	
0.095 -2.9391e-15 	0 	0 	
0.105 2.93908e-15 	0 	0 	
0.115 0 	0 	0 	
0.125 0 	0 	0 	
0.135 0 	0 	0 	
0.145 0 	-1.63152e-31 	0 	
0.155 -2.93907e-15 	0 	0 	
0.165 -8.81722e-15 	0 	0 	
0.175 -5.87815e-15 	0 	0 	
0.185 5.87815e-15 	0 	0 	
0.195 8.81723e-15 	0 	0 	
0.205 2.93908e-15 	0 	0 	
0.215 0 	0 	0 	
0.225 -2.93907e-15 	0 	0 	
0.235 -5.87815e-15 	3.26303e-31 	0 	
0.245 -2.93908e-15 	0 	0 	
0.255 2.93907e-15 	0 	0 	
0.265 5.87815e-15 	0 	0 	
0.275 2.93908e-15 	0 	0 	
0.285 0 	0 	0 	
0.295 0 	0 	0 	
0.305 0 	0 	0 	
0.315 -2.93907e-15 	0 	0 	
0.325 2.9391e-15 	0 	0 	
0.335 8.81725e-15 	0 	0 	
0.345 -2.9391e-15 	0 	0 	
0.355 -5.87818e-15 	0 	0 	
0.365 0 	0 	0 	
0.375 0 	0 	0 	
0.385 0 	0 	0 	
0.395 -2.93907e-15 	0 	0 	
0.405 -2.93908e-15 	0 	0 	
0.415 2.93907e-15 	0 	0 	
0.425 2.93908e-15 	0 	0 	
0.435 0 	0 	0 	
0.445 0 	0 	0 	
0.455 0 	0 	0 	
0.465 0 	0 	0 	
0.475 0.168841 	0 	0 	
0.485 6.73708 	0 	0 	
0.495 28.9754 	0 	0 	
0.505 40.083 	0 	0 	
0.515 19.344 	0 	0 	
0.525 1.66812 	0 	0 	
0.535 0 	0 	0 	
0.545 0 	0 	0 	
0.555 0 	0 	0 	
0.565 -2.20431e-15 	0 	0 	
0.575 -2.20432e-15 	0 	0 	
0.585 2.20431e-15 	0 	0 	
0.595 2.20432e-15 	0 	0 	
0.605 -2.20431e-15 	0 	0 	
0.615 -2.20432e-15 	0 	0 	
0.625 1.95783e-30 	0 	0 	
0.635 -2.20431e-15 	0 	0 	
0.645 -5.45256e-26 	0 	0 	
0.655 4.40863e-15 	0 	0 	
0.665 -4.40863e-15 	0 	0 	
0.675 -1.32259e-14 	0 	0 	
0.685 -1.6343e-25 	0 	0 	
0.695 1.32259e-14 	0 	0 	
0.705 6.61295e-15 	0 	0 	
0.715 0 	0 	0 	
0.725 0 	0 	0 	
0.735 0 	0 	0 	
0.745 0 	0 	0 	
0.755 0 	0 	0 	
0.765 0 	0 	0 	
0.775 0 	0 	0 	
0.785 -6.61295e-15 	0 	0 	
0.795 -1.32259e-14 	0 	0 	
0.805 -1.63283e-25 	0 	0 	
0.815 1.32259e-14 	-2.44729e-31 	0 	
0.825 6.61295e-15 	0 	0 	
0.835 0 	0 	0 	
0.845 0 	0 	0 	
0.855 0 	0 	0 	
0.865 -2.20431e-15 	0 	0 	
0.875 -2.20432e-15 	0 	0 	
0.885 2.20431e-15 	0 	0 	
0.895 2.20432e-15 	0 	0 	
0.905 0 	0 	0 	
0.915 0 	0 	0 	
0.925 0 	0 	0 	
0.935 0 	0 	0 	
0.945 0 	0 	0 	
0.955 0 	0 	0 	
0.965 0 	0 	0 	
0.975 0 	0 	0 	
0.985 0 	0 	0 	
0.995 0 	0 	0 	
