0.005 -3.6856e-14 	0 	0 	
0.015 -5.1934e-14 	0 	0 	
0.025 1.76311e-25 	0 	0 	
0.035 1.25646e-13 	0 	0 	
0.045 6.19854e-14 	0 	0 	
0.055 3.51808e-14 	0 	0 	
0.065 2.44591e-13 	0 	0 	
0.075 -5.02581e-14 	0 	0 	
0.085 2.5129e-14 	0 	0 	
0.095 -2.51292e-14 	0 	0 	
0.105 3.85314e-14 	0 	0 	
0.115 5.02588e-14 	0 	0 	
0.125 -6.7011e-14 	0 	0 	
0.135 -6.03104e-14 	0 	0 	
0.145 -8.87896e-14 	0 	0 	
0.155 -2.51293e-14 	0 	0 	
0.165 2.17785e-14 	0 	0 	
0.175 -8.37641e-14 	0 	0 	
0.185 1.17269e-14 	0 	0 	
0.195 -3.35055e-14 	0 	0 	
0.205 -6.19852e-14 	0 	0 	
0.215 2.68046e-14 	0 	0 	
0.225 -4.18823e-14 	0 	0 	
0.235 -1.67528e-15 	0 	0 	
0.245 -3.35055e-14 	0 	0 	
0.255 9.5491e-14 	0 	0 	
0.265 3.35055e-15 	0 	0 	
0.275 -2.5129e-14 	0 	0 	
0.285 4.02068e-14 	0 	0 	
0.295 2.27838e-13 	0 	0 	
0.305 -5.02581e-15 	0 	0 	
0.315 7.37124e-14 	0 	0 	
0.325 -7.53877e-14 	0 	0 	
0.335 -1.00516e-13 	0 	0 	
0.345 1.32347e-13 	0 	0 	
0.355 5.5284e-14 	0 	0 	
0.365 1.67527e-15 	0 	0 	
0.375 1.08893e-13 	0 	0 	
0.385 -2.17786e-14 	0 	0 	
0.395 1.23971e-13 	0 	0 	
0.405 -1.37373e-13 	0 	0 	
0.415 9.88418e-14 	0 	0 	
0.425 -3.35055e-14 	0 	0 	
0.435 2.68045e-14 	0 	0 	
0.445 7.2037e-14 	0 	0 	
0.455 -1.34023e-14 	0 	0 	
0.465 -2.68043e-14 	0 	0 	
0.475 -8.37638e-15 	0 	0 	
0.485 8.11031 	0 	0 	
0.495 80.1367 	0 	0 	
0.505 125.67 	0 	0 	
0.515 47.8019 	0 	0 	
0.525 -1.00517e-13 	0 	0 	
0.535 4.77456e-14 	0 	0 	
0.545 -5.65408e-14 	0 	0 	
0.555 2.38727e-14 	0 	0 	
0.565 -5.02585e-15 	0 	0 	
0.575 3.76937e-14 	0 	0 	
0.585 6.78487e-14 	0 	0 	
0.595 -5.02585e-14 	0 	0 	
0.605 5.02603e-15 	0 	0 	
0.615 9.54907e-14 	0 	0 	
0.625 -4.39763e-14 	0 	0 	
0.635 2.26163e-14 	0 	0 	
0.645 1.6334e-14 	0 	0 	
0.655 7.28749e-14 	0 	0 	
0.665 2.32445e-13 	0 	0 	
0.675 -3.76939e-14 	0 	0 	
0.685 1.32216e-24 	0 	0 	
0.695 -6.65926e-14 	0 	0 	
0.705 -3.51809e-14 	0 	0 	
0.715 1.00515e-14 	0 	0 	
0.725 -2.51293e-14 	0 	0 	
0.735 1.18107e-13 	0 	0 	
0.745 1.25663e-15 	0 	0 	
0.755 -4.77454e-14 	0 	0 	
0.765 2.63857e-14 	0 	0 	
0.775 4.39762e-14 	0 	0 	
0.785 -4.77456e-14 	0 	0 	
0.795 6.61021e-26 	0 	0 	
0.805 -2.51275e-15 	0 	0 	
0.815 -1.32216e-24 	0 	0 	
0.825 5.65406e-14 	0 	0 	
0.835 -2.26163e-14 	0 	0 	
0.845 0 	0 	0 	
0.855 -4.90019e-14 	0 	0 	
0.865 4.39762e-14 	0 	0 	
0.875 1.88469e-14 	0 	0 	
0.885 -5.52842e-14 	0 	0 	
0.895 3.76938e-15 	0 	0 	
0.905 8.16699e-14 	0 	0 	
0.915 -3.89501e-14 	0 	0 	
0.925 5.65406e-14 	0 	0 	
0.935 -2.26163e-14 	0 	0 	
0.945 -5.77972e-14 	0 	0 	
0.955 -2.26163e-14 	0 	0 	
0.965 2.26161e-14 	0 	0 	
0.975 3.76938e-14 	0 	0 	
0.985 2.51293e-14 	0 	0 	
0.995 -6.78489e-14 	0 	0 	
