0.005 -2.33981e-24 	0 	0 	
0.015 4.70254e-14 	0 	0 	
0.025 -2.3513e-14 	0 	0 	
0.035 -4.70254e-14 	0 	0 	
0.045 2.35127e-14 	0 	0 	
0.055 1.16974e-24 	0 	0 	
0.065 4.70253e-14 	0 	0 	
0.075 1.88101e-13 	0 	0 	
0.085 -2.35127e-14 	0 	0 	
0.095 7.05381e-14 	0 	0 	
0.105 2.35126e-14 	0 	0 	
0.115 -2.35126e-14 	0 	0 	
0.125 -2.35127e-14 	0 	0 	
0.135 -4.70254e-14 	0 	0 	
0.145 -4.70254e-14 	0 	0 	
0.155 -1.16998e-24 	0 	0 	
0.165 7.05381e-14 	0 	0 	
0.175 1.75418e-24 	0 	0 	
0.185 -7.0538e-14 	0 	0 	
0.195 -4.70253e-14 	0 	0 	
0.205 7.05381e-14 	1.95783e-30 	0 	
0.215 2.35127e-14 	0 	0 	
0.225 5.84475e-25 	0 	0 	
0.235 1.16844e-24 	0 	0 	
0.245 2.35127e-14 	0 	0 	
0.255 -2.35126e-14 	0 	0 	
0.265 -2.35127e-14 	0 	0 	
0.275 -7.05381e-14 	0 	0 	
0.285 -2.35127e-14 	0 	0 	
0.295 -7.05381e-14 	0 	0 	
0.305 1.16739e-24 	0 	0 	
0.315 5.83706e-25 	0 	0 	
0.325 -7.05381e-14 	0 	0 	
0.335 -4.70254e-14 	0 	0 	
0.345 2.35127e-14 	0 	0 	
0.355 1.7495e-24 	0 	0 	
0.365 -2.35127e-14 	0 	0 	
0.375 5.83177e-25 	0 	0 	
0.385 7.05381e-14 	0 	0 	
0.395 2.35127e-14 	0 	0 	
0.405 -4.70253e-14 	0 	0 	
0.415 -5.82641e-25 	0 	0 	
0.425 -2.35127e-14 	0 	0 	
0.435 1.04417e-29 	0 	0 	
0.445 7.26746e-05 	0 	0 	
0.455 0.031798 	0 	0 	
0.465 1.35009 	0 	0 	
0.475 13.737 	0 	0 	
0.485 54.7609 	0 	0 	
0.495 115.335 	0 	0 	
0.505 130.07 	-5.24141e-31 	0 	
0.515 124.112 	8.37437e-31 	0 	
0.525 77.8849 	-1.14393e-30 	0 	
0.535 10.2796 	-8.21029e-31 	0 	
0.545 0.177851 	-7.33568e-31 	0 	
0.555 0.000302601 	0 	0 	
0.565 5.29035e-14 	0 	0 	
0.575 1.76345e-14 	0 	0 	
0.585 3.5269e-14 	0 	0 	
0.595 1.05807e-13 	0 	0 	
0.605 3.52689e-14 	0 	0 	
0.615 7.0538e-14 	0 	0 	
0.625 -3.5269e-14 	0 	0 	
0.635 -7.05379e-14 	0 	0 	
0.645 1.76345e-14 	0 	0 	
0.655 1.76345e-14 	0 	0 	
0.665 1.76346e-14 	0 	0 	
0.675 8.81725e-14 	0 	0 	
0.685 1.76345e-14 	0 	0 	
0.695 3.5269e-14 	0 	0 	
0.705 3.5269e-14 	0 	0 	
0.715 1.76344e-14 	0 	0 	
0.725 1.76345e-14 	0 	0 	
0.735 -7.0538e-14 	0 	0 	
0.745 5.29035e-14 	0 	0 	
0.755 5.29035e-14 	-7.34184e-31 	0 	
0.765 -4.35421e-25 	0 	0 	
0.775 3.5269e-14 	0 	0 	
0.785 3.5269e-14 	0 	0 	
0.795 3.5269e-14 	-7.34184e-31 	0 	
0.805 3.5269e-14 	-7.34184e-31 	0 	
0.815 4.34661e-25 	0 	0 	
0.825 -5.29036e-14 	0 	0 	
0.835 -7.0538e-14 	0 	0 	
0.845 4.34701e-25 	0 	0 	
0.855 -3.5269e-14 	0 	0 	
0.865 -3.04247e-24 	0 	0 	
0.875 7.05379e-14 	0 	0 	
0.885 1.76345e-14 	0 	0 	
0.895 5.29035e-14 	0 	0 	
0.905 1.76344e-14 	0 	0 	
0.915 5.29035e-14 	0 	0 	
0.925 -5.29035e-14 	0 	0 	
0.935 -4.34642e-25 	0 	0 	
0.945 -3.5269e-14 	0 	0 	
0.955 1.76345e-14 	0 	0 	
0.965 1.73542e-24 	0 	0 	
0.975 -3.52689e-14 	0 	0 	
0.985 -5.29035e-14 	0 	0 	
0.995 3.5269e-14 	0 	0 	
