0.005 1.02115e-05 	0 	0 	
0.015 -3.9565e-06 	0 	0 	
0.025 -3.1255e-06 	0 	0 	
0.035 1.63421e-05 	0 	0 	
0.045 6.00625e-06 	0 	0 	
0.055 1.6081e-05 	0 	0 	
0.065 2.46238e-06 	0 	0 	
0.075 1.4563e-05 	0 	0 	
0.085 1.81745e-06 	0 	0 	
0.095 -3.2498e-06 	0 	0 	
0.105 -5.6554e-06 	0 	0 	
0.115 -1.37614e-05 	0 	0 	
0.125 5.4645e-06 	0 	0 	
0.135 -2.0087e-06 	0 	0 	
0.145 7.3819e-06 	0 	0 	
0.155 -1.074e-06 	0 	0 	
0.165 -5.0109e-06 	0 	0 	
0.175 -4.99e-07 	0 	0 	
0.185 3.49005e-06 	0 	0 	
0.195 1.5225e-06 	0 	0 	
0.205 5.029e-06 	0 	0 	
0.215 1.74219e-05 	0 	0 	
0.225 -3.964e-06 	0 	0 	
0.235 -2.1e-06 	0 	0 	
0.245 4.87745e-06 	0 	0 	
0.255 -8.1415e-06 	0 	0 	
0.265 8.33905e-06 	0 	0 	
0.275 6.8367e-06 	0 	0 	
0.285 -1.85653e-05 	0 	0 	
0.295 1.21075e-05 	0 	0 	
0.305 6.75505e-06 	0 	0 	
0.315 1.10815e-06 	0 	0 	
0.325 -3.348e-06 	0 	0 	
0.335 1.723e-06 	0 	0 	
0.345 -1.32726e-05 	0 	0 	
0.355 4.328e-07 	0 	0 	
0.365 5.726e-06 	0 	0 	
0.375 -7.998e-06 	0 	0 	
0.385 3.26e-07 	0 	0 	
0.395 3.33345e-06 	0 	0 	
0.405 1.00272e-05 	0 	0 	
0.415 -3.33125e-06 	0 	0 	
0.425 1.50081e-05 	0 	0 	
0.435 -1.45255e-05 	0 	0 	
0.445 -8.57e-07 	0 	0 	
0.455 -8508.85 	0 	0 	
0.465 -8.02676e+10 	0 	0 	
0.475 -2.54537e+19 	0 	0 	
0.485 -5.68799e+31 	0 	0 	
0.495 -2.7279e+40 	0 	0 	
0.505 1.93198e+46 	0 	0 	
0.515 5.94238e+41 	0 	0 	
0.525 1.05991e+29 	0 	0 	
0.535 2.52874e+18 	0 	0 	
0.545 3.51233e+06 	0 	0 	
0.555 1.3803e-05 	0 	0 	
0.565 -4.14315e-06 	0 	0 	
0.575 -6.3e-06 	0 	0 	
0.585 -1.52288e-05 	0 	0 	
0.595 -3.44195e-06 	0 	0 	
0.605 7.7071e-06 	0 	0 	
0.615 -3.574e-06 	0 	0 	
0.625 1.98881e-06 	0 	0 	
0.635 8.15185e-06 	0 	0 	
0.645 -5.258e-06 	0 	0 	
0.655 -1.6532e-06 	0 	0 	
0.665 1.09938e-05 	0 	0 	
0.675 -1.0279e-05 	0 	0 	
0.685 1.0928e-05 	0 	0 	
0.695 -3.5265e-06 	0 	0 	
0.705 1.23e-06 	0 	0 	
0.715 1.14403e-05 	0 	0 	
0.725 1.62547e-05 	0 	0 	
0.735 -1.73405e-06 	0 	0 	
0.745 -7.44455e-06 	0 	0 	
0.755 -1.00095e-05 	0 	0 	
0.765 2.12465e-05 	0 	0 	
0.775 -6.155e-06 	0 	0 	
0.785 -5.3131e-06 	0 	0 	
0.795 -1.86281e-05 	0 	0 	
0.805 -1.156e-06 	0 	0 	
0.815 1.10855e-05 	0 	0 	
0.825 1.29175e-05 	0 	0 	
0.835 -2.42876e-05 	0 	0 	
0.845 1.75127e-06 	0 	0 	
0.855 -8.4844e-06 	0 	0 	
0.865 1.0541e-05 	0 	0 	
0.875 4.21215e-06 	0 	0 	
0.885 1.6533e-06 	0 	0 	
0.895 7.415e-07 	0 	0 	
0.905 1.59705e-05 	0 	0 	
0.915 1.14586e-05 	0 	0 	
0.925 2.6075e-07 	0 	0 	
0.935 -7.41385e-06 	0 	0 	
0.945 -3.2172e-06 	0 	0 	
0.955 -5.2689e-06 	0 	0 	
0.965 -1.0323e-05 	0 	0 	
0.975 -1.5214e-06 	0 	0 	
0.985 -1.6904e-06 	0 	0 	
0.995 2.4325e-06 	0 	0 	
