0.005 1.26748e-13 	0 	0 	
0.015 4.64743e-14 	0 	0 	
0.025 -2.11247e-14 	0 	0 	
0.035 -5.49242e-14 	0 	0 	
0.045 2.95746e-14 	0 	0 	
0.055 8.87237e-14 	0 	0 	
0.065 2.11247e-14 	-2.3453e-31 	0 	
0.075 4.22494e-15 	0 	0 	
0.085 -2.95746e-14 	0 	0 	
0.095 7.18239e-14 	0 	0 	
0.105 2.95746e-14 	0 	0 	
0.115 -5.91491e-14 	0 	0 	
0.125 -4.22494e-15 	0 	0 	
0.135 6.33741e-14 	0 	0 	
0.145 6.7599e-14 	0 	0 	
0.155 -8.44988e-15 	0 	0 	
0.165 3.80244e-14 	0 	0 	
0.175 -8.44987e-15 	0 	0 	
0.185 -2.53496e-14 	0 	0 	
0.195 -1.18298e-13 	0 	0 	
0.205 -4.22494e-14 	0 	0 	
0.215 1.26748e-14 	0 	0 	
0.225 -2.11247e-14 	0 	0 	
0.235 -1.26748e-13 	0 	0 	
0.245 8.44988e-15 	0 	0 	
0.255 5.06993e-14 	0 	0 	
0.265 -3.80244e-14 	0 	0 	
0.275 -8.44987e-15 	0 	0 	
0.285 2.11247e-14 	0 	0 	
0.295 -4.64743e-14 	0 	0 	
0.305 -6.7599e-14 	0 	0 	
0.315 0 	0 	0 	
0.325 1.56323e-13 	0 	0 	
0.335 -8.87237e-14 	0 	0 	
0.345 0 	0 	0 	
0.355 -1.26748e-14 	0 	0 	
0.365 1.43648e-13 	0 	0 	
0.375 -8.02738e-14 	0 	0 	
0.385 -2.95746e-14 	0 	0 	
0.395 -2.53496e-14 	0 	0 	
0.405 -6.33741e-14 	0 	0 	
0.415 -3.80244e-14 	0 	0 	
0.425 7.18239e-14 	0 	0 	
0.435 -4.22494e-14 	0 	0 	
0.445 0 	0 	0 	
0.455 8.44988e-15 	0 	0 	
0.465 -1.68998e-13 	0 	0 	
0.475 -8.02738e-14 	0 	0 	
0.485 -3.80244e-14 	0 	0 	
0.495 15.5688 	0 	0 	
0.505 79.6172 	0 	0 	
0.515 6.65429e-14 	0 	0 	
0.525 7.28802e-14 	0 	0 	
0.535 6.33742e-14 	0 	0 	
0.545 0 	0 	0 	
0.555 -1.04567e-13 	0 	0 	
0.565 6.33738e-14 	0 	0 	
0.575 4.11932e-14 	0 	0 	
0.585 -2.21806e-14 	0 	0 	
0.595 -5.70363e-14 	0 	0 	
0.605 0 	0 	0 	
0.615 3.16869e-14 	0 	0 	
0.625 1.07736e-13 	0 	0 	
0.635 -8.23864e-14 	0 	0 	
0.645 -1.52098e-13 	0 	0 	
0.655 1.10905e-13 	0 	0 	
0.665 0 	0 	0 	
0.675 -8.23859e-14 	0 	0 	
0.685 1.90122e-14 	0 	0 	
0.695 -6.33756e-15 	0 	0 	
0.705 7.6049e-14 	0 	0 	
0.715 6.65428e-14 	0 	0 	
0.725 8.87237e-14 	3.51796e-31 	0 	
0.735 3.48557e-14 	0 	0 	
0.745 -2.50075e-20 	0 	0 	
0.755 3.48556e-14 	0 	0 	
0.765 5.70367e-14 	-7.03593e-31 	0 	
0.775 0 	0 	0 	
0.785 -3.16854e-15 	0 	0 	
0.795 8.23863e-14 	0 	0 	
0.805 -9.50613e-15 	0 	0 	
0.815 -1.17242e-13 	3.51796e-31 	0 	
0.825 2.2181e-14 	1.75898e-31 	0 	
0.835 1.65304e-25 	0 	0 	
0.845 0 	0 	0 	
0.855 2.85184e-14 	0 	0 	
0.865 3.80246e-14 	0 	0 	
0.875 8.87237e-14 	0 	0 	
0.885 -9.18923e-14 	0 	0 	
0.895 -8.87237e-14 	0 	0 	
0.905 1.01398e-13 	0 	0 	
0.915 -1.20411e-13 	0 	0 	
0.925 9.506e-15 	0 	0 	
0.935 -1.26747e-14 	0 	0 	
0.945 2.53496e-14 	0 	0 	
0.955 -3.1687e-15 	0 	0 	
0.965 -9.82298e-14 	0 	0 	
0.975 -5.70366e-14 	0 	0 	
0.985 0 	0 	0 	
0.995 1.58435e-14 	0 	0 	
