0.005 8.8907e-14 	0 	0 	
0.015 1.85897e-13 	0 	0 	
0.025 6.46599e-14 	0 	0 	
0.035 1.2932e-13 	0 	0 	
0.045 -5.65775e-14 	0 	0 	
0.055 -3.87318e-19 	0 	0 	
0.065 -5.65775e-14 	0 	0 	
0.075 4.04126e-14 	0 	0 	
0.085 8.08249e-14 	0 	0 	
0.095 -1.6165e-14 	0 	0 	
0.105 1.13155e-13 	0 	0 	
0.115 -1.71453e-19 	0 	0 	
0.125 -9.699e-14 	0 	0 	
0.135 3.23296e-14 	0 	0 	
0.145 3.233e-14 	0 	0 	
0.155 1.05072e-13 	0 	0 	
0.165 7.27425e-14 	0 	0 	
0.175 2.42475e-14 	0 	0 	
0.185 -3.23296e-14 	0 	0 	
0.195 1.6165e-14 	0 	0 	
0.205 -8.0825e-15 	0 	0 	
0.215 2.42475e-14 	0 	0 	
0.225 -4.84949e-14 	0 	0 	
0.235 -5.65775e-14 	0 	0 	
0.245 -1.2932e-13 	0 	0 	
0.255 5.01115e-13 	0 	0 	
0.265 1.26022e-10 	0 	0 	
0.275 1.43321e-08 	0 	0 	
0.285 8.48907e-07 	0 	0 	
0.295 2.97085e-05 	0 	0 	
0.305 0.000628594 	0 	0 	
0.315 0.00851778 	9.42229e-30 	0 	
0.325 0.0751475 	0 	0 	
0.335 0.444853 	-8.76146e-30 	0 	
0.345 1.81274 	0 	0 	
0.355 5.32212 	-4.44821e-30 	0 	
0.365 11.9568 	1.53336e-29 	0 	
0.375 21.9429 	0 	0 	
0.385 34.8107 	3.98404e-30 	0 	
0.395 49.8076 	0 	0 	
0.405 66.17 	3.01958e-30 	0 	
0.415 83.1387 	0 	0 	
0.425 99.7644 	-9.167e-31 	0 	
0.435 114.49 	0 	0 	
0.445 124.878 	-2.98772e-30 	0 	
0.455 129.359 	-2.86751e-30 	0 	
0.465 130.165 	-3.38156e-30 	0 	
0.475 130.185 	0 	0 	
0.485 130.164 	0 	0 	
0.495 130.148 	-1.3534e-30 	0 	
0.505 130.136 	-1.18455e-30 	0 	
0.515 130.124 	0 	0 	
0.525 130.116 	0 	0 	
0.535 130.108 	0 	0 	
0.545 130.101 	0 	0 	
0.555 130.094 	0 	0 	
0.565 130.088 	0 	0 	
0.575 130.081 	0 	0 	
0.585 130.074 	0 	0 	
0.595 130.067 	0 	0 	
0.605 130.059 	0 	0 	
0.615 130.047 	0 	0 	
0.625 129.997 	0 	0 	
0.635 129.653 	0 	0 	
0.645 127.372 	0 	0 	
0.655 115.139 	0 	0 	
0.665 68.921 	0 	0 	
0.675 11.302 	0 	0 	
0.685 0.6235 	0 	0 	
0.695 0.0243564 	0 	0 	
0.705 0.000719425 	0 	0 	
0.715 1.43522e-05 	0 	0 	
0.725 1.84232e-07 	0 	0 	
0.735 1.2937e-09 	0 	0 	
0.745 4.82525e-12 	0 	0 	
0.755 -6.06186e-15 	0 	0 	
0.765 1.09114e-13 	0 	0 	
0.775 6.06188e-14 	0 	0 	
0.785 1.81857e-14 	0 	0 	
0.795 1.39423e-13 	0 	0 	
0.805 8.48663e-14 	0 	0 	
0.815 -5.45569e-14 	0 	0 	
0.825 1.81856e-14 	0 	0 	
0.835 1.81856e-14 	0 	0 	
0.845 1.09114e-13 	0 	0 	
0.855 2.42474e-14 	0 	0 	
0.865 -1.81856e-14 	0 	0 	
0.875 -1.81857e-14 	0 	0 	
0.885 4.2433e-14 	0 	0 	
0.895 -7.88043e-14 	0 	0 	
0.905 -5.45568e-14 	0 	0 	
0.915 -1.33361e-13 	0 	0 	
0.925 -6.06186e-15 	0 	0 	
0.935 -7.88043e-14 	0 	0 	
0.945 -1.21238e-14 	0 	0 	
0.955 2.42475e-14 	0 	0 	
0.965 -3.63712e-14 	0 	0 	
0.975 1.21238e-14 	0 	0 	
0.985 -1.21238e-14 	0 	0 	
0.995 5.45569e-14 	0 	0 	
