0.005 2.63222e-24 	0 	0 	
0.015 -2.11614e-13 	0 	0 	
0.025 -3.5269e-14 	0 	0 	
0.035 3.5269e-14 	0 	0 	
0.045 -3.5269e-14 	0 	0 	
0.055 1.05807e-13 	0 	0 	
0.065 -1.05807e-13 	0 	0 	
0.075 -7.0538e-14 	0 	0 	
0.085 -3.17422e-13 	0 	0 	
0.095 2.46883e-13 	0 	0 	
0.105 1.05807e-13 	0 	0 	
0.115 1.3165e-24 	0 	0 	
0.125 3.5269e-14 	-2.44728e-30 	0 	
0.135 5.26729e-24 	0 	0 	
0.145 -3.5269e-14 	0 	0 	
0.155 -1.05807e-13 	0 	0 	
0.165 -7.0538e-14 	0 	0 	
0.175 -1.41076e-13 	-4.89455e-30 	0 	
0.185 -3.947e-24 	-4.89455e-30 	0 	
0.195 7.0538e-14 	0 	0 	
0.205 -2.46883e-13 	0 	0 	
0.215 -1.41076e-13 	0 	0 	
0.225 1.41076e-13 	0 	0 	
0.235 -7.0538e-14 	0 	0 	
0.245 -3.5269e-14 	0 	0 	
0.255 1.76345e-13 	-5.62874e-30 	0 	
0.265 7.05381e-14 	-5.38403e-30 	0 	
0.275 -7.05381e-14 	0 	0 	
0.285 7.05381e-14 	0 	0 	
0.295 -1.05807e-13 	0 	0 	
0.305 -7.0538e-14 	0 	0 	
0.315 -3.5269e-14 	0 	0 	
0.325 1.76345e-13 	0 	0 	
0.335 -2.62669e-24 	0 	0 	
0.345 1.05807e-13 	0 	0 	
0.355 -1.76345e-13 	-4.89455e-30 	0 	
0.365 -1.05807e-13 	0 	0 	
0.375 3.5269e-14 	0 	0 	
0.385 8.63459e-08 	0 	0 	
0.395 9.90331e-05 	0 	0 	
0.405 0.0108774 	0 	0 	
0.415 0.295091 	5.63263e-30 	0 	
0.425 2.81774 	5.17653e-30 	0 	
0.435 12.3148 	-2.27799e-30 	0 	
0.445 31.8962 	3.75335e-30 	0 	
0.455 59.9228 	1.16833e-30 	0 	
0.465 91.8216 	9.69587e-31 	0 	
0.475 119.077 	0 	0 	
0.485 129.628 	-1.22705e-46 	0 	
0.495 130.202 	0 	0 	
0.505 130.161 	-1.8499e-31 	0 	
0.515 130.122 	0 	0 	
0.525 130.068 	0 	0 	
0.535 129.981 	0 	0 	
0.545 129.807 	0 	0 	
0.555 122.701 	0 	0 	
0.565 181099 	0 	0 	
0.575 645.625 	0 	0 	
0.585 12.8722 	0 	0 	
0.595 0.195998 	0 	0 	
0.605 0.0010411 	0 	0 	
0.615 5.98939e-07 	0 	0 	
0.625 -2.64518e-14 	0 	0 	
0.635 1.85162e-13 	0 	0 	
0.645 -5.29037e-14 	0 	0 	
0.655 3.92579e-24 	0 	0 	
0.665 -9.81503e-25 	0 	0 	
0.675 2.6452e-14 	0 	0 	
0.685 7.9355e-14 	0 	0 	
0.695 2.38066e-13 	0 	0 	
0.705 -1.05807e-13 	0 	0 	
0.715 -9.79653e-25 	0 	0 	
0.725 1.05807e-13 	0 	0 	
0.735 -5.29035e-14 	0 	0 	
0.745 -1.85162e-13 	0 	0 	
0.755 -1.95939e-24 	0 	0 	
0.765 -7.93553e-14 	0 	0 	
0.775 -5.29035e-14 	0 	0 	
0.785 2.6452e-14 	0 	0 	
0.795 2.11614e-13 	0 	0 	
0.805 -5.29037e-14 	0 	0 	
0.815 1.32259e-13 	0 	0 	
0.825 4.88963e-24 	0 	0 	
0.835 1.32259e-13 	0 	0 	
0.845 5.29035e-14 	0 	0 	
0.855 2.38066e-13 	0 	0 	
0.865 1.95584e-24 	0 	0 	
0.875 -7.93553e-14 	0 	0 	
0.885 -1.05807e-13 	0 	0 	
0.895 7.93555e-14 	0 	0 	
0.905 -5.29037e-14 	0 	0 	
0.915 -2.6452e-14 	0 	0 	
0.925 -5.29037e-14 	0 	0 	
0.935 -5.29036e-14 	0 	0 	
0.945 -5.29035e-14 	0 	0 	
0.955 7.9355e-14 	0 	0 	
0.965 2.64518e-14 	0 	0 	
0.975 -1.05807e-13 	0 	0 	
0.985 1.95236e-24 	0 	0 	
0.995 7.93552e-14 	0 	0 	
