0.005 2.50042e-14 	0 	0 	
0.015 4.40863e-14 	0 	0 	
0.025 8.22943e-14 	0 	0 	
0.035 9.11115e-14 	0 	0 	
0.045 4.11471e-14 	0 	0 	
0.055 -5.87817e-15 	0 	0 	
0.065 -3.23299e-14 	0 	0 	
0.075 -6.17208e-14 	0 	0 	
0.085 -5.58427e-14 	0 	0 	
0.095 -4.38752e-25 	0 	0 	
0.105 4.40863e-14 	0 	0 	
0.115 4.70254e-14 	0 	0 	
0.125 2.93909e-14 	0 	0 	
0.135 -2.35125e-14 	0 	0 	
0.145 -9.99286e-14 	-1.95782e-30 	0 	
0.155 -1.35197e-13 	0 	0 	
0.165 -1.23441e-13 	0 	0 	
0.175 -9.69897e-14 	0 	0 	
0.185 -4.99644e-14 	0 	0 	
0.195 2.05736e-14 	0 	0 	
0.205 5.87817e-14 	0 	0 	
0.215 4.70254e-14 	0 	0 	
0.225 5.29036e-14 	0 	0 	
0.235 6.7599e-14 	3.91565e-30 	0 	
0.245 3.5269e-14 	0 	0 	
0.255 -2.9391e-15 	0 	0 	
0.265 -5.87818e-15 	0 	0 	
0.275 0 	0 	0 	
0.285 0 	0 	0 	
0.295 0 	0 	0 	
0.305 0 	0 	0 	
0.315 -2.93907e-15 	0 	0 	
0.325 2.9391e-15 	0 	0 	
0.335 8.81725e-15 	0 	0 	
0.345 -2.9391e-15 	0 	0 	
0.355 -5.87818e-15 	0 	0 	
0.365 0 	0 	0 	
0.375 -8.81725e-15 	0 	0 	
0.385 -2.64517e-14 	0 	0 	
0.395 -3.82081e-14 	0 	0 	
0.405 -2.35127e-14 	0 	0 	
0.415 2.64517e-14 	0 	0 	
0.425 4.99645e-14 	0 	0 	
0.435 2.05736e-14 	0 	0 	
0.445 2.76785 	0 	0 	
0.455 16.1302 	0 	0 	
0.465 44.2819 	0 	0 	
0.475 80.4433 	0 	0 	
0.485 111 	0 	0 	
0.495 126.785 	0 	0 	
0.505 130.91 	0 	0 	
0.515 131.847 	0 	0 	
0.525 131.564 	0 	0 	
0.535 122.679 	0 	0 	
0.545 94.2486 	0 	0 	
0.555 48.7139 	0 	0 	
0.565 12.4819 	0 	0 	
0.575 0.655788 	0 	0 	
0.585 1.10216e-14 	0 	0 	
0.595 4.40864e-15 	0 	0 	
0.605 -2.42475e-14 	0 	0 	
0.615 -5.51079e-14 	0 	0 	
0.625 -5.06993e-14 	0 	0 	
0.635 -3.08604e-14 	0 	0 	
0.645 -1.32259e-14 	0 	0 	
0.655 0 	0 	0 	
0.665 -2.42474e-14 	0 	0 	
0.675 -3.96777e-14 	0 	0 	
0.685 2.20432e-15 	0 	0 	
0.695 4.1882e-14 	0 	0 	
0.705 3.74734e-14 	0 	0 	
0.715 2.86561e-14 	0 	0 	
0.725 3.5269e-14 	0 	0 	
0.735 4.40863e-14 	0 	0 	
0.745 3.74734e-14 	0 	0 	
0.755 1.32259e-14 	0 	0 	
0.765 0 	0 	0 	
0.775 -4.40862e-15 	0 	0 	
0.785 -2.20431e-14 	0 	0 	
0.795 -2.64518e-14 	0 	0 	
0.805 2.2043e-15 	0 	0 	
0.815 2.42475e-14 	-2.93674e-30 	0 	
0.825 1.98389e-14 	0 	0 	
0.835 6.61295e-15 	0 	0 	
0.845 0 	0 	0 	
0.855 0 	0 	0 	
0.865 -8.81725e-15 	0 	0 	
0.875 -1.10216e-14 	0 	0 	
0.885 6.61296e-15 	0 	0 	
0.895 4.40863e-15 	0 	0 	
0.905 -1.98388e-14 	0 	0 	
0.915 -3.5269e-14 	0 	0 	
0.925 -3.08604e-14 	0 	0 	
0.935 -2.71409e-25 	0 	0 	
0.945 2.20432e-14 	0 	0 	
0.955 1.98388e-14 	0 	0 	
0.965 2.42474e-14 	0 	0 	
0.975 2.20432e-14 	0 	0 	
0.985 6.61295e-15 	0 	0 	
0.995 0 	0 	0 	
