0.005 4.90141e-14 	0 	0 	
0.015 8.22944e-14 	0 	0 	
0.025 9.99288e-14 	0 	0 	
0.035 9.11115e-14 	0 	0 	
0.045 3.52689e-14 	0 	0 	
0.055 -1.76345e-14 	0 	0 	
0.065 -8.81725e-15 	0 	0 	
0.075 -2.9391e-15 	0 	0 	
0.085 -1.76345e-14 	0 	0 	
0.095 5.87815e-15 	0 	0 	
0.105 1.46954e-14 	0 	0 	
0.115 -1.46954e-14 	0 	0 	
0.125 -4.99644e-14 	0 	0 	
0.135 -1.08746e-13 	0 	0 	
0.145 -1.67528e-13 	-1.46837e-30 	0 	
0.155 -1.73407e-13 	1.30522e-30 	0 	
0.165 -1.41076e-13 	0 	0 	
0.175 -1.14624e-13 	0 	0 	
0.185 -6.75989e-14 	0 	0 	
0.195 1.76345e-14 	0 	0 	
0.205 6.46599e-14 	0 	0 	
0.215 5.87817e-14 	0 	0 	
0.225 7.3477e-14 	0 	0 	
0.235 9.11115e-14 	4.89455e-30 	0 	
0.245 6.17207e-14 	6.52609e-31 	0 	
0.255 2.35127e-14 	0 	0 	
0.265 8.81723e-15 	0 	0 	
0.275 2.93908e-15 	0 	0 	
0.285 5.87817e-15 	0 	0 	
0.295 2.35127e-14 	0 	0 	
0.305 3.52691e-14 	0 	0 	
0.315 3.233e-14 	0 	0 	
0.325 2.64518e-14 	0 	0 	
0.335 2.93905e-15 	0 	0 	
0.345 -2.93909e-14 	0 	0 	
0.355 -3.82081e-14 	0 	0 	
0.365 -3.23299e-14 	0 	0 	
0.375 -2.93908e-14 	0 	0 	
0.385 -3.23299e-14 	0 	0 	
0.395 -4.40863e-14 	0 	0 	
0.405 -4.40863e-14 	0 	0 	
0.415 -2.9391e-15 	0 	0 	
0.425 1.18517 	0 	0 	
0.435 9.00986 	0 	0 	
0.445 28.5539 	0 	0 	
0.455 56.6997 	0 	0 	
0.465 86.1983 	0 	0 	
0.475 110.92 	0 	0 	
0.485 125.47 	0 	0 	
0.495 129.473 	0 	0 	
0.505 129.039 	0 	0 	
0.515 128.908 	0 	0 	
0.525 130.072 	0 	0 	
0.535 131.56 	0 	0 	
0.545 131.134 	0 	0 	
0.555 123.812 	0 	0 	
0.565 98.1404 	0 	0 	
0.575 53.2775 	-8.44693e-31 	0 	
0.585 14.9866 	0 	0 	
0.595 1.12076 	0 	0 	
0.605 -3.96776e-14 	0 	0 	
0.615 -7.49466e-14 	0 	0 	
0.625 -8.15596e-14 	0 	0 	
0.635 -6.61294e-14 	0 	0 	
0.645 -2.64518e-14 	0 	0 	
0.655 2.20431e-15 	0 	0 	
0.665 -6.61293e-15 	0 	0 	
0.675 -2.20431e-14 	0 	0 	
0.685 -6.61293e-15 	0 	0 	
0.695 1.98388e-14 	0 	0 	
0.705 2.42475e-14 	0 	0 	
0.715 3.08604e-14 	0 	0 	
0.725 5.95164e-14 	0 	0 	
0.735 8.81724e-14 	0 	0 	
0.745 7.27423e-14 	0 	0 	
0.755 2.86561e-14 	0 	0 	
0.765 4.40863e-15 	0 	0 	
0.775 -4.40862e-15 	0 	0 	
0.785 -2.20431e-14 	0 	0 	
0.795 -2.64518e-14 	0 	0 	
0.805 2.2043e-15 	0 	0 	
0.815 2.42475e-14 	-4.16038e-30 	0 	
0.825 1.98389e-14 	0 	0 	
0.835 6.61295e-15 	0 	0 	
0.845 0 	0 	0 	
0.855 -2.20431e-15 	0 	0 	
0.865 -1.76345e-14 	0 	0 	
0.875 -3.08604e-14 	0 	0 	
0.885 -1.98388e-14 	0 	0 	
0.895 -6.61295e-15 	0 	0 	
0.905 -1.10216e-14 	0 	0 	
0.915 -2.64517e-14 	0 	0 	
0.925 -2.64518e-14 	0 	0 	
0.935 -1.54302e-14 	0 	0 	
0.945 -8.81728e-15 	0 	0 	
0.955 1.32259e-14 	0 	0 	
0.965 4.84949e-14 	0 	0 	
0.975 6.17208e-14 	0 	0 	
0.985 3.52691e-14 	0 	0 	
0.995 6.61295e-15 	0 	0 	
