0.005 4.90141e-14 	0 	0 	
0.015 8.22944e-14 	0 	0 	
0.025 9.99288e-14 	0 	0 	
0.035 1.17563e-13 	0 	0 	
0.045 1.2932e-13 	0 	0 	
0.055 1.17563e-13 	0 	0 	
0.065 6.75989e-14 	0 	0 	
0.075 -2.64518e-14 	0 	0 	
0.085 -8.81727e-14 	0 	0 	
0.095 -8.22945e-14 	0 	0 	
0.105 -8.52334e-14 	0 	0 	
0.115 -1.05807e-13 	0 	0 	
0.125 -1.32259e-13 	0 	0 	
0.135 -1.96919e-13 	0 	0 	
0.145 -2.557e-13 	-1.63152e-30 	0 	
0.155 -2.43944e-13 	1.63152e-30 	0 	
0.165 -1.9398e-13 	0 	0 	
0.175 -1.49893e-13 	0 	0 	
0.185 -9.11117e-14 	0 	0 	
0.195 -5.87815e-15 	0 	0 	
0.205 4.99645e-14 	0 	0 	
0.215 5.58427e-14 	0 	0 	
0.225 8.22944e-14 	1.63152e-31 	0 	
0.235 1.11685e-13 	7.83129e-30 	0 	
0.245 8.81726e-14 	6.52609e-31 	0 	
0.255 5.87817e-14 	0 	0 	
0.265 4.99645e-14 	0 	0 	
0.275 4.40863e-14 	0 	0 	
0.285 4.99645e-14 	0 	0 	
0.295 5.87817e-14 	0 	0 	
0.305 6.46599e-14 	0 	0 	
0.315 7.64163e-14 	0 	0 	
0.325 7.93554e-14 	0 	0 	
0.335 5.87817e-14 	0 	0 	
0.345 -5.87815e-15 	0 	0 	
0.355 -8.22942e-14 	0 	0 	
0.365 -1.20502e-13 	0 	0 	
0.375 -1.23441e-13 	0 	0 	
0.385 0.0284232 	0 	0 	
0.395 2.18064 	0 	0 	
0.405 10.967 	0 	0 	
0.415 27.6782 	0 	0 	
0.425 48.9695 	0 	0 	
0.435 71.5173 	0 	0 	
0.445 93.0067 	0 	0 	
0.455 110.915 	0 	0 	
0.465 122.58 	0 	0 	
0.475 127.727 	0 	0 	
0.485 129.471 	0 	0 	
0.495 130.296 	0 	0 	
0.505 130.717 	0 	0 	
0.515 130.804 	0 	0 	
0.525 130.455 	0 	0 	
0.535 129.75 	0 	0 	
0.545 129.186 	0 	0 	
0.555 129.18 	0 	0 	
0.565 129.716 	0 	0 	
0.575 130.271 	-2.3662e-30 	0 	
0.585 129.875 	-1.18288e-30 	0 	
0.595 125.173 	0 	0 	
0.605 105.373 	0 	0 	
0.615 64.0619 	0 	0 	
0.625 22.0241 	0 	0 	
0.635 2.81345 	0 	0 	
0.645 -8.3764e-14 	0 	0 	
0.655 -2.42475e-14 	0 	0 	
0.665 -1.10216e-14 	0 	0 	
0.675 -1.32259e-14 	0 	0 	
0.685 1.54302e-14 	0 	0 	
0.695 5.06992e-14 	0 	0 	
0.705 4.84949e-14 	0 	0 	
0.715 3.30647e-14 	0 	0 	
0.725 6.39251e-14 	0 	0 	
0.735 1.03603e-13 	0 	0 	
0.745 8.37639e-14 	0 	0 	
0.755 4.40863e-14 	0 	0 	
0.765 3.08604e-14 	0 	0 	
0.775 2.42475e-14 	0 	0 	
0.785 2.2043e-15 	0 	0 	
0.795 -8.81728e-15 	0 	0 	
0.805 1.54302e-14 	0 	0 	
0.815 3.74734e-14 	-6.60765e-30 	0 	
0.825 2.64518e-14 	0 	0 	
0.835 6.61295e-15 	0 	0 	
0.845 0 	0 	0 	
0.855 -1.10216e-14 	0 	0 	
0.865 -4.40863e-14 	0 	0 	
0.875 -6.83338e-14 	0 	0 	
0.885 -6.17209e-14 	0 	0 	
0.895 -6.83337e-14 	0 	0 	
0.905 -7.49465e-14 	0 	0 	
0.915 -4.40862e-14 	0 	0 	
0.925 -2.20432e-14 	0 	0 	
0.935 -1.76345e-14 	0 	0 	
0.945 2.20432e-15 	0 	0 	
0.955 3.96777e-14 	0 	0 	
0.965 8.3764e-14 	0 	0 	
0.975 1.08011e-13 	0 	0 	
0.985 9.69899e-14 	0 	0 	
0.995 6.50767e-14 	0 	0 	
