0.005 7.34771e-14 	0 	0 	
0.015 -5.87817e-14 	0 	0 	
0.025 -2.93906e-14 	0 	0 	
0.035 -1.46955e-14 	0 	0 	
0.045 2.93907e-14 	0 	0 	
0.055 -4.40864e-14 	0 	0 	
0.065 -1.46954e-14 	0 	0 	
0.075 -5.87815e-14 	0 	0 	
0.085 -2.93908e-14 	0 	0 	
0.095 -7.34772e-14 	0 	0 	
0.105 -1.17563e-13 	0 	0 	
0.115 -5.87815e-14 	0 	0 	
0.125 -4.40863e-14 	0 	0 	
0.135 5.87815e-14 	0 	0 	
0.145 2.20431e-13 	0 	0 	
0.155 1.61649e-13 	0 	0 	
0.165 1.6165e-13 	0 	0 	
0.175 1.46954e-13 	0 	0 	
0.185 1.02868e-13 	0 	0 	
0.195 -4.40862e-14 	0 	0 	
0.205 -5.87818e-14 	0 	0 	
0.215 7.30593e-24 	0 	0 	
0.225 -4.40865e-14 	0 	0 	
0.235 -1.02868e-13 	0 	0 	
0.245 -2.93908e-14 	0 	0 	
0.255 2.93908e-14 	0 	0 	
0.265 -8.81725e-14 	0 	0 	
0.275 -2.20432e-13 	0 	0 	
0.285 -1.17563e-13 	0 	0 	
0.295 -4.40863e-14 	0 	0 	
0.305 -1.46953e-14 	0 	0 	
0.315 4.40863e-14 	0 	0 	
0.325 4.4086e-14 	0 	0 	
0.335 1.17563e-13 	0 	0 	
0.345 1.46955e-14 	0 	0 	
0.355 5.87818e-14 	0 	0 	
0.365 4.40863e-14 	0 	0 	
0.375 1.46952e-14 	0 	0 	
0.385 4.1015e-10 	0 	0 	
0.395 1.18905e-06 	0 	0 	
0.405 0.000300525 	0 	0 	
0.415 0.0181616 	0 	0 	
0.425 0.375148 	0 	0 	
0.435 3.21056 	0 	0 	
0.445 13.6633 	0 	0 	
0.455 35.5501 	0 	0 	
0.465 67.2962 	0 	0 	
0.475 102.225 	0 	0 	
0.485 125.878 	0 	0 	
0.495 130.19 	0 	0 	
0.505 130.186 	0 	0 	
0.515 130.146 	0 	0 	
0.525 130.108 	0 	0 	
0.535 129.989 	0 	0 	
0.545 128.487 	0 	0 	
0.555 115.765 	0 	0 	
0.565 62.654 	0 	0 	
0.575 7.43503 	0 	0 	
0.585 0.221685 	0 	0 	
0.595 0.002498 	0 	0 	
0.605 7.42146e-06 	0 	0 	
0.615 1.99019e-09 	0 	0 	
0.625 1.10216e-14 	0 	0 	
0.635 4.08946e-24 	0 	0 	
0.645 1.10216e-14 	0 	0 	
0.655 -5.51079e-14 	0 	0 	
0.665 1.10215e-14 	0 	0 	
0.675 1.10217e-14 	0 	0 	
0.685 4.40863e-14 	0 	0 	
0.695 4.40864e-14 	0 	0 	
0.705 2.2043e-14 	0 	0 	
0.715 2.20432e-14 	0 	0 	
0.725 3.30647e-14 	0 	0 	
0.735 -4.40864e-14 	0 	0 	
0.745 -1.10215e-13 	0 	0 	
0.755 -2.20431e-14 	0 	0 	
0.765 -2.20431e-14 	0 	0 	
0.775 -6.61294e-14 	0 	0 	
0.785 -5.51078e-14 	0 	0 	
0.795 -2.20432e-14 	0 	0 	
0.805 -7.7151e-14 	0 	0 	
0.815 -5.51079e-14 	0 	0 	
0.825 9.78913e-30 	0 	0 	
0.835 7.71509e-14 	0 	0 	
0.845 1.10216e-13 	0 	0 	
0.855 4.40863e-14 	0 	0 	
0.865 6.61295e-14 	0 	0 	
0.875 -3.30648e-14 	0 	0 	
0.885 4.40863e-14 	0 	0 	
0.895 -6.63368e-30 	0 	0 	
0.905 -5.51077e-14 	0 	0 	
0.915 -5.51079e-14 	0 	0 	
0.925 -5.51079e-14 	0 	0 	
0.935 2.20431e-14 	0 	0 	
0.945 3.30647e-14 	0 	0 	
0.955 8.81725e-14 	0 	0 	
0.965 3.30647e-14 	0 	0 	
0.975 1.54302e-13 	0 	0 	
0.985 7.71509e-14 	0 	0 	
0.995 8.81725e-14 	0 	0 	
