0.005 1.33523e-13 	0 	0 	
0.015 1.21384e-13 	0 	0 	
0.025 -5.20219e-14 	0 	0 	
0.035 1.24852e-13 	0 	0 	
0.045 -4.68196e-14 	0 	0 	
0.055 -2.42769e-14 	0 	0 	
0.065 8.6701e-15 	0 	0 	
0.075 2.60111e-14 	0 	0 	
0.085 2.9479e-14 	1.92519e-30 	0 	
0.095 -9.36391e-14 	0 	0 	
0.105 -6.58942e-14 	0 	0 	
0.115 9.88413e-14 	-9.62597e-31 	0 	
0.125 -3.46812e-14 	7.21947e-31 	0 	
0.135 -1.47395e-13 	0 	0 	
0.145 -1.38725e-14 	0 	0 	
0.155 2.77448e-14 	0 	0 	
0.165 -6.06921e-14 	0 	0 	
0.175 -3.46812e-14 	0 	0 	
0.185 -1.42193e-13 	0 	0 	
0.195 1.35257e-13 	0 	0 	
0.205 1.73406e-15 	0 	0 	
0.215 7.28304e-14 	0 	0 	
0.225 6.93624e-14 	0 	0 	
0.235 -3.64153e-14 	0 	0 	
0.245 1.92481e-13 	0 	0 	
0.255 4.33514e-14 	0 	0 	
0.265 -6.41602e-14 	0 	0 	
0.275 -6.0692e-14 	0 	0 	
0.285 1.07512e-13 	0 	0 	
0.295 -9.36391e-14 	0 	0 	
0.305 3.46812e-15 	0 	0 	
0.315 5.87637e-25 	0 	0 	
0.325 -2.60108e-14 	0 	0 	
0.335 7.10967e-14 	0 	0 	
0.345 1.1098e-13 	0 	0 	
0.355 -3.46812e-14 	0 	0 	
0.365 -1.21383e-14 	0 	0 	
0.375 -1.12714e-13 	0 	0 	
0.385 5.37558e-14 	0 	0 	
0.395 1.30054e-13 	0 	0 	
0.405 -7.28306e-14 	0 	0 	
0.415 3.46795e-15 	0 	0 	
0.425 -7.80326e-14 	0 	0 	
0.435 4.50856e-14 	0 	0 	
0.445 3.81493e-14 	0 	0 	
0.455 1.56067e-14 	0 	0 	
0.465 1.17916e-13 	0 	0 	
0.475 -5.20219e-14 	0 	0 	
0.485 7.63321 	0 	0 	
0.495 80.503 	0 	0 	
0.505 125.896 	0 	0 	
0.515 46.7759 	0 	0 	
0.525 -1.10546e-13 	0 	0 	
0.535 3.51148e-14 	0 	0 	
0.545 5.46229e-14 	0 	0 	
0.555 -2.60111e-14 	0 	0 	
0.565 -1.56068e-14 	0 	0 	
0.575 3.25136e-14 	0 	0 	
0.585 6.63277e-14 	0 	0 	
0.595 -3.90163e-15 	0 	0 	
0.605 -9.75408e-14 	0 	0 	
0.615 -1.4306e-14 	0 	0 	
0.625 -9.1038e-14 	0 	0 	
0.635 3.25134e-14 	0 	0 	
0.645 -1.1705e-14 	0 	0 	
0.655 -7.54317e-14 	0 	0 	
0.665 4.0429e-30 	0 	0 	
0.675 -4.5519e-14 	0 	0 	
0.685 2.6011e-14 	0 	0 	
0.695 -2.99127e-14 	0 	0 	
0.705 2.86116e-14 	0 	0 	
0.715 1.35256e-13 	0 	0 	
0.725 3.90162e-14 	0 	0 	
0.735 -7.80325e-14 	0 	0 	
0.745 -1.95084e-14 	0 	0 	
0.755 -6.50293e-15 	0 	0 	
0.765 -2.34098e-14 	0 	0 	
0.775 1.17049e-13 	0 	0 	
0.785 -1.95082e-14 	0 	0 	
0.795 -2.73114e-14 	0 	0 	
0.805 -1.15749e-13 	0 	0 	
0.815 2.21093e-14 	0 	0 	
0.825 1.10546e-13 	0 	0 	
0.835 4.5519e-14 	0 	0 	
0.845 -1.82076e-14 	0 	0 	
0.855 6.24261e-14 	0 	0 	
0.865 4.5519e-14 	0 	0 	
0.875 -1.30054e-14 	0 	0 	
0.885 1.72972e-13 	0 	0 	
0.895 -6.24264e-14 	0 	0 	
0.905 -2.86121e-14 	0 	0 	
0.915 1.4306e-14 	0 	0 	
0.925 1.62568e-13 	0 	0 	
0.935 2.73115e-14 	0 	0 	
0.945 4.5519e-14 	0 	0 	
0.955 -3.51146e-14 	0 	0 	
0.965 6.76283e-14 	0 	0 	
0.975 -4.55189e-14 	0 	0 	
0.985 -7.41309e-14 	0 	0 	
0.995 -5.0721e-14 	0 	0 	
