0.005 5.78314e-14 	0 	0 	
0.015 1.11685e-13 	0 	0 	
0.025 1.35198e-13 	0 	0 	
0.035 1.32259e-13 	0 	0 	
0.045 1.2932e-13 	0 	0 	
0.055 1.11685e-13 	0 	0 	
0.065 6.7599e-14 	0 	0 	
0.075 -1.17562e-14 	0 	0 	
0.085 -1.02868e-13 	0 	0 	
0.095 -1.46954e-13 	0 	0 	
0.105 -1.67528e-13 	0 	0 	
0.115 -1.76345e-13 	0 	0 	
0.125 -1.67528e-13 	0 	0 	
0.135 -1.9104e-13 	0 	0 	
0.145 -2.32188e-13 	-3.26305e-31 	0 	
0.155 -2.61579e-13 	0 	0 	
0.165 -2.79213e-13 	0 	0 	
0.175 -2.35127e-13 	0 	0 	
0.185 -1.2932e-13 	0 	0 	
0.195 -2.93909e-14 	0 	0 	
0.205 8.81725e-15 	0 	0 	
0.215 5.87815e-15 	0 	0 	
0.225 2.35127e-14 	0 	0 	
0.235 4.40863e-14 	6.52609e-31 	0 	
0.245 6.46598e-14 	0 	0 	
0.255 1.02868e-13 	0 	0 	
0.265 1.23441e-13 	0 	0 	
0.275 1.32259e-13 	0 	0 	
0.285 1.44015e-13 	0 	0 	
0.295 1.17564e-13 	0 	0 	
0.305 7.34772e-14 	0 	0 	
0.315 6.17208e-14 	0 	0 	
0.325 6.46599e-14 	0 	0 	
0.335 4.40863e-14 	0 	0 	
0.345 -1.76345e-14 	0 	0 	
0.355 -4.40863e-14 	0 	0 	
0.365 1.23138 	0 	0 	
0.375 6.94953 	0 	0 	
0.385 18.8102 	0 	0 	
0.395 34.7528 	0 	0 	
0.405 52.3001 	0 	0 	
0.415 70.2201 	0 	0 	
0.425 87.6393 	0 	0 	
0.435 103.543 	0 	0 	
0.445 116.614 	0 	0 	
0.455 125.164 	0 	0 	
0.465 129.055 	0 	0 	
0.475 130.444 	0 	0 	
0.485 130.83 	0 	0 	
0.495 130.655 	0 	0 	
0.505 130.305 	0 	0 	
0.515 130 	0 	0 	
0.525 129.863 	0 	0 	
0.535 129.9 	0 	0 	
0.545 130.069 	0 	0 	
0.555 130.25 	0 	0 	
0.565 130.284 	0 	0 	
0.575 130.116 	-2.02073e-30 	0 	
0.585 129.903 	-8.47769e-31 	0 	
0.595 129.87 	0 	0 	
0.605 129.98 	0 	0 	
0.615 129.751 	0 	0 	
0.625 127.248 	0 	0 	
0.635 114.534 	0 	0 	
0.645 80.7447 	0 	0 	
0.655 35.7456 	0 	0 	
0.665 7.01683 	0 	0 	
0.675 -5.95164e-14 	0 	0 	
0.685 1.98388e-14 	0 	0 	
0.695 6.39251e-14 	0 	0 	
0.705 3.30647e-14 	0 	0 	
0.715 8.81725e-15 	0 	0 	
0.725 5.06992e-14 	0 	0 	
0.735 8.15597e-14 	0 	0 	
0.745 7.27424e-14 	0 	0 	
0.755 5.51079e-14 	0 	0 	
0.765 4.1882e-14 	0 	0 	
0.775 3.96777e-14 	0 	0 	
0.785 2.20432e-14 	0 	0 	
0.795 -1.10215e-14 	0 	0 	
0.805 -2.20431e-14 	0 	0 	
0.815 -8.81725e-15 	-4.89455e-31 	0 	
0.825 8.81725e-15 	0 	0 	
0.835 2.86561e-14 	0 	0 	
0.845 4.40863e-14 	0 	0 	
0.855 3.74734e-14 	0 	0 	
0.865 1.10216e-14 	0 	0 	
0.875 -1.76345e-14 	0 	0 	
0.885 -4.62906e-14 	0 	0 	
0.895 -6.17208e-14 	0 	0 	
0.905 -3.74734e-14 	0 	0 	
0.915 2.20431e-15 	0 	0 	
0.925 1.54302e-14 	0 	0 	
0.935 2.20431e-14 	0 	0 	
0.945 4.1882e-14 	0 	0 	
0.955 4.84949e-14 	0 	0 	
0.965 3.08604e-14 	0 	0 	
0.975 3.5269e-14 	0 	0 	
0.985 5.95165e-14 	0 	0 	
0.995 4.33735e-14 	0 	0 	
