0.005 6.06921e-14 	0 	0 	
0.015 5.37558e-14 	0 	0 	
0.025 3.46811e-14 	0 	0 	
0.035 1.00575e-13 	0 	0 	
0.045 2.77449e-14 	0 	0 	
0.055 4.16176e-14 	0 	0 	
0.065 3.46812e-15 	0 	0 	
0.075 -7.80326e-14 	0 	0 	
0.085 -6.93625e-14 	3.36909e-30 	0 	
0.095 -6.41603e-14 	0 	0 	
0.105 1.61268e-13 	0 	0 	
0.115 -5.8958e-14 	-1.68455e-30 	0 	
0.125 -1.21384e-13 	1.20325e-30 	0 	
0.135 1.49129e-13 	0 	0 	
0.145 4.68196e-14 	0 	0 	
0.155 -2.25426e-14 	0 	0 	
0.165 -6.93623e-14 	0 	0 	
0.175 -5.20218e-14 	0 	0 	
0.185 4.16173e-14 	0 	0 	
0.195 -2.94788e-14 	0 	0 	
0.205 1.73405e-15 	0 	0 	
0.215 2.94788e-14 	0 	0 	
0.225 6.06923e-14 	0 	0 	
0.235 -3.64152e-14 	0 	0 	
0.245 3.81494e-14 	0 	0 	
0.255 1.21383e-14 	0 	0 	
0.265 4.68198e-14 	0 	0 	
0.275 -2.93824e-24 	0 	0 	
0.285 -5.37558e-14 	0 	0 	
0.295 1.04044e-13 	0 	0 	
0.305 5.87645e-25 	0 	0 	
0.315 -1.578e-13 	0 	0 	
0.325 -6.93625e-14 	0 	0 	
0.335 2.7745e-14 	0 	0 	
0.345 2.42769e-14 	0 	0 	
0.355 -9.36394e-14 	0 	0 	
0.365 -6.93618e-15 	0 	0 	
0.375 3.46811e-14 	0 	0 	
0.385 8.3235e-14 	0 	0 	
0.395 -5.87645e-25 	0 	0 	
0.405 -1.09246e-13 	0 	0 	
0.415 -6.41602e-14 	0 	0 	
0.425 0 	0 	0 	
0.435 4.50856e-14 	0 	0 	
0.445 -7.28304e-14 	0 	0 	
0.455 1.82076e-13 	0 	0 	
0.465 0.00676945 	0 	0 	
0.475 3.6552 	0 	0 	
0.485 38.9952 	0 	0 	
0.495 113.271 	0 	0 	
0.505 130.132 	0 	0 	
0.515 116.602 	0 	0 	
0.525 32.1978 	0 	0 	
0.535 0.0336691 	0 	0 	
0.545 -5.20227e-15 	0 	0 	
0.555 1.56065e-14 	0 	0 	
0.565 1.30041e-15 	0 	0 	
0.575 -1.30056e-14 	0 	0 	
0.585 1.10546e-13 	0 	0 	
0.595 6.89291e-14 	0 	0 	
0.605 1.30056e-15 	0 	0 	
0.615 -5.2022e-14 	0 	0 	
0.625 -5.20219e-14 	0 	0 	
0.635 -1.82076e-14 	0 	0 	
0.645 1.1705e-14 	0 	0 	
0.655 -2.86121e-14 	0 	0 	
0.665 1.71672e-13 	0 	0 	
0.675 1.95081e-14 	0 	0 	
0.685 5.85243e-14 	0 	0 	
0.695 7.8033e-14 	0 	0 	
0.705 4.40751e-25 	0 	0 	
0.715 -5.85243e-14 	0 	0 	
0.725 5.20219e-14 	0 	0 	
0.735 -8.32349e-14 	0 	0 	
0.745 -9.10385e-15 	0 	0 	
0.755 -9.23388e-14 	0 	0 	
0.765 -1.00142e-13 	0 	0 	
0.775 6.5027e-14 	0 	0 	
0.785 -3.25138e-14 	0 	0 	
0.795 -1.00142e-13 	0 	0 	
0.805 1.56066e-14 	0 	0 	
0.815 -7.80325e-14 	0 	0 	
0.825 8.45358e-14 	0 	0 	
0.835 -3.25139e-14 	0 	0 	
0.845 -1.56064e-14 	0 	0 	
0.855 9.7541e-14 	0 	0 	
0.865 -7.15301e-14 	0 	0 	
0.875 -1.95082e-14 	0 	0 	
0.885 1.26153e-13 	0 	0 	
0.895 -2.34099e-14 	0 	0 	
0.905 -5.33226e-14 	0 	0 	
0.915 -2.99127e-14 	0 	0 	
0.925 6.50273e-15 	0 	0 	
0.935 -2.341e-14 	0 	0 	
0.945 7.54317e-14 	0 	0 	
0.955 -2.34099e-14 	0 	0 	
0.965 -2.21091e-14 	0 	0 	
0.975 -2.6011e-14 	0 	0 	
0.985 1.56066e-14 	0 	0 	
0.995 -2.60108e-15 	0 	0 	
