0.005 6.72465e-14 	0 	0 	
0.015 -8.74204e-15 	0 	0 	
0.025 1.10956e-13 	0 	0 	
0.035 6.85914e-14 	0 	0 	
0.045 -4.10203e-14 	0 	0 	
0.055 5.37973e-15 	0 	0 	
0.065 -8.87653e-14 	0 	0 	
0.075 6.05219e-14 	0 	0 	
0.085 4.97623e-14 	0 	0 	
0.095 -6.6574e-14 	0 	0 	
0.105 -1.89635e-13 	0 	0 	
0.115 -7.39709e-15 	7.46583e-30 	0 	
0.125 -3.36232e-14 	0 	0 	
0.135 -4.84175e-14 	0 	0 	
0.145 -8.8765e-14 	0 	0 	
0.155 1.00867e-14 	0 	0 	
0.165 -5.91767e-14 	0 	0 	
0.175 6.38837e-14 	0 	0 	
0.185 -4.57275e-14 	0 	0 	
0.195 -1.06249e-13 	0 	0 	
0.205 -8.47301e-14 	0 	0 	
0.215 -1.33148e-13 	0 	0 	
0.225 -1.07594e-13 	0 	0 	
0.235 3.1606e-14 	0 	0 	
0.245 2.93823e-24 	0 	0 	
0.255 1.2575e-13 	0 	0 	
0.265 1.74839e-14 	0 	0 	
0.275 4.37103e-14 	0 	0 	
0.285 -3.22782e-14 	0 	0 	
0.295 9.95246e-14 	0 	0 	
0.305 -4.90897e-14 	0 	0 	
0.315 4.57277e-14 	0 	0 	
0.325 1.54666e-13 	0 	0 	
0.335 1.7484e-13 	0 	0 	
0.345 8.40172e-10 	0 	0 	
0.355 5.03163e-07 	0 	0 	
0.365 7.50635e-05 	0 	0 	
0.375 0.00373587 	0 	0 	
0.385 0.0761365 	0 	0 	
0.395 0.745636 	0 	0 	
0.405 3.93674 	0 	0 	
0.415 12.4943 	0 	0 	
0.425 27.7418 	0 	0 	
0.435 48.7044 	0 	0 	
0.445 73.1972 	0 	0 	
0.455 98.3377 	0 	0 	
0.465 119.171 	0 	0 	
0.475 128.903 	0 	0 	
0.485 130.196 	0 	0 	
0.495 130.183 	0 	0 	
0.505 130.156 	0 	0 	
0.515 130.134 	0 	0 	
0.525 130.117 	0 	0 	
0.535 130.101 	0 	0 	
0.545 130.086 	0 	0 	
0.555 130.07 	0 	0 	
0.565 130.034 	0 	0 	
0.575 129.826 	0 	0 	
0.585 126.679 	0 	0 	
0.595 105.275 	0 	0 	
0.605 44.9707 	0 	0 	
0.615 3.24031 	0 	0 	
0.625 0.0824076 	0 	0 	
0.635 0.00101599 	0 	0 	
0.645 4.78127e-06 	0 	0 	
0.655 6.09136e-09 	0 	0 	
0.665 2.68311e-13 	0 	0 	
0.675 5.04345e-14 	0 	0 	
0.685 8.7252e-14 	0 	0 	
0.695 6.20351e-14 	0 	0 	
0.705 -3.17741e-14 	0 	0 	
0.715 -1.24069e-13 	0 	0 	
0.725 -1.7652e-14 	0 	0 	
0.735 -6.55643e-15 	0 	0 	
0.745 5.44693e-14 	0 	0 	
0.755 -1.05913e-14 	0 	0 	
0.765 -7.4139e-14 	0 	0 	
0.775 -1.36174e-13 	0 	0 	
0.785 -1.23061e-13 	0 	0 	
0.795 -3.02622e-15 	0 	0 	
0.805 -1.0087e-13 	0 	0 	
0.815 -5.04621e-16 	0 	0 	
0.825 8.06951e-14 	0 	0 	
0.835 -4.43826e-14 	0 	0 	
0.845 3.42956e-14 	0 	0 	
0.855 5.34606e-14 	0 	0 	
0.865 4.74084e-14 	0 	0 	
0.875 1.63913e-13 	0 	0 	
0.885 7.01042e-14 	0 	0 	
0.895 1.91147e-13 	0 	0 	
0.905 -7.56547e-15 	0 	0 	
0.915 4.43823e-14 	0 	0 	
0.925 1.51304e-14 	0 	0 	
0.935 1.61392e-14 	0 	0 	
0.945 -1.0087e-13 	0 	0 	
0.955 -9.53216e-14 	0 	0 	
0.965 -1.25583e-13 	0 	0 	
0.975 -1.51303e-14 	0 	0 	
0.985 -1.86612e-14 	0 	0 	
0.995 -3.98434e-14 	0 	0 	
