0.005 4.70254e-14 	0 	0 	
0.015 7.0538e-14 	0 	0 	
0.025 3.50959e-24 	0 	0 	
0.035 -2.35126e-14 	0 	0 	
0.045 9.40507e-14 	0 	0 	
0.055 7.05381e-14 	0 	0 	
0.065 7.05383e-14 	0 	0 	
0.075 4.70254e-14 	0 	0 	
0.085 7.0538e-14 	0 	0 	
0.095 -2.3513e-14 	0 	0 	
0.105 -1.17e-24 	0 	0 	
0.115 4.70254e-14 	0 	0 	
0.125 -1.41076e-13 	0 	0 	
0.135 2.35126e-14 	0 	0 	
0.145 -4.70254e-14 	0 	0 	
0.155 -1.17563e-13 	0 	0 	
0.165 -1.17e-24 	0 	0 	
0.175 1.16948e-24 	0 	0 	
0.185 4.70253e-14 	0 	0 	
0.195 -4.70256e-14 	0 	0 	
0.205 -9.40507e-14 	9.78913e-30 	0 	
0.215 -2.35127e-14 	0 	0 	
0.225 -9.40507e-14 	0 	0 	
0.235 -2.35127e-14 	0 	0 	
0.245 -9.40508e-14 	0 	0 	
0.255 -1.75265e-24 	0 	0 	
0.265 -7.0538e-14 	0 	0 	
0.275 1.90453e-12 	0 	0 	
0.285 1.73547e-10 	0 	0 	
0.295 9.65345e-09 	0 	0 	
0.305 3.60709e-07 	0 	0 	
0.315 9.29564e-06 	0 	0 	
0.325 0.000168402 	0 	0 	
0.335 0.00217419 	0 	0 	
0.345 0.0201936 	0 	0 	
0.355 0.135811 	0 	0 	
0.365 0.665939 	0 	0 	
0.375 2.41345 	0 	0 	
0.385 6.64675 	0 	0 	
0.395 14.5185 	0 	0 	
0.405 26.4258 	0 	0 	
0.415 41.9447 	0 	0 	
0.425 60.1584 	0 	0 	
0.435 79.8703 	0 	0 	
0.445 99.4324 	0 	0 	
0.455 116.179 	0 	0 	
0.465 126.555 	0 	0 	
0.475 129.879 	0 	0 	
0.485 130.213 	0 	0 	
0.495 130.192 	0 	0 	
0.505 130.169 	-4.93023e-31 	0 	
0.515 130.149 	8.64147e-31 	0 	
0.525 130.132 	-1.50568e-30 	0 	
0.535 130.118 	-9.4856e-31 	0 	
0.545 130.104 	-1.22641e-30 	0 	
0.555 130.091 	0 	0 	
0.565 130.076 	0 	0 	
0.575 130.055 	2.87448e-30 	0 	
0.585 129.973 	2.3668e-30 	0 	
0.595 129.474 	2.70692e-30 	0 	
0.605 126.81 	2.21204e-30 	0 	
0.615 115.62 	-1.74633e-30 	0 	
0.625 81.7311 	0 	0 	
0.635 29.4567 	0 	0 	
0.645 4.55894 	0 	0 	
0.655 0.453695 	0 	0 	
0.665 0.0350307 	0 	0 	
0.675 0.00209648 	0 	0 	
0.685 9.44928e-05 	0 	0 	
0.695 3.11465e-06 	0 	0 	
0.705 7.28568e-08 	0 	0 	
0.715 1.16945e-09 	0 	0 	
0.725 1.23265e-11 	0 	0 	
0.735 5.29035e-14 	0 	0 	
0.745 -1.76346e-14 	0 	0 	
0.755 1.76345e-14 	-3.67092e-30 	0 	
0.765 8.70842e-25 	0 	0 	
0.775 -8.70839e-25 	0 	0 	
0.785 -2.61252e-24 	0 	0 	
0.795 3.52689e-14 	-4.03801e-30 	0 	
0.805 -8.81725e-14 	-3.91565e-30 	0 	
0.815 3.5269e-14 	0 	0 	
0.825 -1.3039e-24 	0 	0 	
0.835 -1.76346e-14 	0 	0 	
0.845 3.5269e-14 	0 	0 	
0.855 1.05807e-13 	0 	0 	
0.865 1.5871e-13 	0 	0 	
0.875 5.29035e-14 	0 	0 	
0.885 1.23442e-13 	0 	0 	
0.895 -1.76345e-14 	0 	0 	
0.905 4.3463e-25 	0 	0 	
0.915 7.0538e-14 	0 	0 	
0.925 -5.29035e-14 	0 	0 	
0.935 -5.29035e-14 	0 	0 	
0.945 -5.29036e-14 	0 	0 	
0.955 5.29035e-14 	0 	0 	
0.965 5.29035e-14 	0 	0 	
0.975 4.33838e-25 	0 	0 	
0.985 -5.29035e-14 	0 	0 	
0.995 -7.0538e-14 	0 	0 	
