0.005 -6.72463e-14 	0 	0 	
0.015 -9.21277e-14 	0 	0 	
0.025 -5.37972e-14 	0 	0 	
0.035 1.34492e-15 	0 	0 	
0.045 -8.74202e-15 	0 	0 	
0.055 3.6313e-14 	0 	0 	
0.065 5.85038e-14 	0 	0 	
0.075 -7.06088e-14 	0 	0 	
0.085 4.97623e-14 	0 	0 	
0.095 5.58147e-14 	0 	0 	
0.105 1.26423e-13 	0 	0 	
0.115 -6.7246e-14 	2.56639e-30 	0 	
0.125 3.36233e-14 	0 	0 	
0.135 -1.14317e-14 	0 	0 	
0.145 -3.16056e-14 	0 	0 	
0.155 -5.44694e-14 	0 	0 	
0.165 5.44697e-14 	0 	0 	
0.175 1.21043e-13 	0 	0 	
0.185 1.54666e-14 	0 	0 	
0.195 -5.87647e-25 	0 	0 	
0.205 -1.72823e-13 	0 	0 	
0.215 -3.63132e-14 	0 	0 	
0.225 -7.73333e-14 	0 	0 	
0.235 -2.48812e-14 	0 	0 	
0.245 3.83306e-14 	0 	0 	
0.255 -1.00871e-14 	0 	0 	
0.265 -5.37968e-15 	0 	0 	
0.275 -3.02609e-14 	0 	0 	
0.285 -3.36231e-14 	0 	0 	
0.295 5.11075e-14 	0 	0 	
0.305 3.6313e-14 	0 	0 	
0.315 -4.90895e-14 	0 	0 	
0.325 1.71478e-13 	0 	0 	
0.335 8.06968e-15 	0 	0 	
0.345 5.58142e-14 	0 	0 	
0.355 6.32116e-14 	0 	0 	
0.365 5.87625e-25 	0 	0 	
0.375 -1.0087e-13 	0 	0 	
0.385 -1.14318e-14 	0 	0 	
0.395 -2.55536e-14 	0 	0 	
0.405 6.7253e-16 	0 	0 	
0.415 4.77447e-14 	0 	0 	
0.425 1.00869e-14 	0 	0 	
0.435 -1.68788e-13 	0 	0 	
0.445 0.000384298 	0 	0 	
0.455 0.231524 	0 	0 	
0.465 5.79855 	0 	0 	
0.475 33.1342 	0 	0 	
0.485 85.546 	0 	0 	
0.495 127.5 	0 	0 	
0.505 130.185 	0 	0 	
0.515 129.893 	0 	0 	
0.525 123.257 	0 	0 	
0.535 65.936 	0 	0 	
0.545 2.48656 	0 	0 	
0.555 0.00221517 	0 	0 	
0.565 -2.26956e-14 	0 	0 	
0.575 8.82607e-14 	0 	0 	
0.585 1.81562e-14 	0 	0 	
0.595 1.66435e-14 	0 	0 	
0.605 5.79997e-14 	0 	0 	
0.615 3.9339e-14 	0 	0 	
0.625 2.52173e-14 	0 	0 	
0.635 1.96696e-14 	0 	0 	
0.645 1.17009e-13 	0 	0 	
0.655 9.93563e-14 	0 	0 	
0.665 -8.77561e-14 	0 	0 	
0.675 5.04347e-14 	0 	0 	
0.685 -7.11129e-14 	0 	0 	
0.695 -3.47999e-14 	0 	0 	
0.705 -6.70782e-14 	0 	0 	
0.715 -1.23061e-13 	0 	0 	
0.725 3.53043e-14 	0 	0 	
0.735 -4.38782e-14 	0 	0 	
0.745 -3.5304e-15 	0 	0 	
0.755 5.80003e-14 	0 	0 	
0.765 -1.96695e-14 	0 	0 	
0.775 2.52175e-15 	0 	0 	
0.785 4.69043e-14 	0 	0 	
0.795 -3.83303e-14 	0 	0 	
0.805 7.5652e-14 	0 	0 	
0.815 4.13563e-14 	0 	0 	
0.825 6.80868e-14 	0 	0 	
0.835 5.39652e-14 	0 	0 	
0.845 -3.27826e-14 	0 	0 	
0.855 -6.80867e-14 	0 	0 	
0.865 -1.10956e-14 	0 	0 	
0.875 1.26087e-14 	0 	0 	
0.885 -1.41216e-14 	0 	0 	
0.895 -9.07824e-15 	0 	0 	
0.905 1.00886e-15 	0 	0 	
0.915 8.52347e-14 	0 	0 	
0.925 3.27827e-14 	0 	0 	
0.935 -1.10452e-13 	0 	0 	
0.945 -8.92694e-14 	0 	0 	
0.955 -9.98609e-14 	0 	0 	
0.965 7.36345e-14 	0 	0 	
0.975 -1.76521e-14 	0 	0 	
0.985 -1.46259e-14 	0 	0 	
0.995 -1.76522e-14 	0 	0 	
