0.005 -3.52689e-14 	0 	0 	
0.015 -2.6322e-24 	0 	0 	
0.025 7.05379e-14 	0 	0 	
0.035 -1.05807e-13 	0 	0 	
0.045 -7.05381e-14 	0 	0 	
0.055 -1.31592e-24 	0 	0 	
0.065 -7.0538e-14 	0 	0 	
0.075 -3.94787e-24 	0 	0 	
0.085 1.05807e-13 	0 	0 	
0.095 -1.41076e-13 	0 	0 	
0.105 1.05807e-13 	0 	0 	
0.115 -7.05381e-14 	0 	0 	
0.125 1.41076e-13 	-2.93674e-30 	0 	
0.135 -3.52695e-14 	0 	0 	
0.145 -3.5269e-14 	0 	0 	
0.155 7.0538e-14 	0 	0 	
0.165 1.41076e-13 	0 	0 	
0.175 -1.41076e-13 	-6.36293e-30 	0 	
0.185 -2.82152e-13 	-5.87348e-30 	0 	
0.195 7.05381e-14 	0 	0 	
0.205 -3.5269e-14 	0 	0 	
0.215 3.52691e-14 	0 	0 	
0.225 -3.5269e-14 	0 	0 	
0.235 1.41076e-13 	0 	0 	
0.245 -1.31441e-24 	0 	0 	
0.255 3.5269e-14 	-7.09712e-30 	0 	
0.265 -7.0538e-14 	-6.36293e-30 	0 	
0.275 -3.5269e-14 	0 	0 	
0.285 -3.52689e-14 	0 	0 	
0.295 1.05807e-13 	0 	0 	
0.305 -1.41076e-13 	0 	0 	
0.315 1.31329e-24 	0 	0 	
0.325 3.5269e-14 	0 	0 	
0.335 -1.76345e-13 	0 	0 	
0.345 1.31217e-24 	0 	0 	
0.355 9.94588e-12 	-5.87348e-30 	0 	
0.365 1.1381e-07 	0 	0 	
0.375 4.50601e-05 	0 	0 	
0.385 0.0036492 	0 	0 	
0.395 0.0968796 	0 	0 	
0.405 1.05309 	0 	0 	
0.415 5.53462 	6.45806e-30 	0 	
0.425 16.8962 	4.87561e-30 	0 	
0.435 35.8773 	-1.62931e-30 	0 	
0.445 60.5511 	1.75773e-30 	0 	
0.455 87.8576 	-3.19402e-31 	0 	
0.465 112.975 	-1.73451e-31 	0 	
0.475 127.549 	0 	0 	
0.485 130.169 	-2.76904e-31 	0 	
0.495 130.182 	0 	0 	
0.505 130.145 	-1.84844e-31 	0 	
0.515 130.099 	0 	0 	
0.525 130.022 	0 	0 	
0.535 -3410.42 	0 	0 	
0.545 -8.92899e+08 	0 	0 	
0.555 1.72222e+12 	0 	0 	
0.565 -1.05559e+14 	0 	0 	
0.575 -1.6675e+15 	0 	0 	
0.585 1.75571e+11 	0 	0 	
0.595 7.10682e+07 	0 	0 	
0.605 3.84408 	0 	0 	
0.615 0.0763105 	0 	0 	
0.625 0.00055457 	0 	0 	
0.635 9.57368e-07 	0 	0 	
0.645 5.91989e-11 	0 	0 	
0.655 -1.32259e-13 	0 	0 	
0.665 7.93555e-14 	0 	0 	
0.675 1.05807e-13 	0 	0 	
0.685 -1.5871e-13 	0 	0 	
0.695 -2.6452e-14 	0 	0 	
0.705 2.64518e-14 	0 	0 	
0.715 -2.64518e-13 	0 	0 	
0.725 -2.11614e-13 	0 	0 	
0.735 -2.64517e-14 	0 	0 	
0.745 -1.58711e-13 	0 	0 	
0.755 2.6452e-14 	0 	0 	
0.765 -1.95939e-24 	0 	0 	
0.775 -2.64517e-14 	0 	0 	
0.785 1.32259e-13 	0 	0 	
0.795 1.32259e-13 	0 	0 	
0.805 1.95944e-24 	0 	0 	
0.815 1.32259e-13 	0 	0 	
0.825 4.88968e-24 	0 	0 	
0.835 1.58711e-13 	0 	0 	
0.845 -2.52436e-29 	0 	0 	
0.855 4.88966e-24 	0 	0 	
0.865 7.93555e-14 	0 	0 	
0.875 2.64518e-14 	0 	0 	
0.885 2.64518e-14 	0 	0 	
0.895 1.05807e-13 	0 	0 	
0.905 2.6452e-14 	0 	0 	
0.915 2.64518e-14 	0 	0 	
0.925 -5.29035e-14 	0 	0 	
0.935 -1.95584e-24 	0 	0 	
0.945 7.93555e-14 	0 	0 	
0.955 7.93555e-14 	0 	0 	
0.965 -1.32259e-13 	0 	0 	
0.975 9.76178e-25 	0 	0 	
0.985 2.64515e-14 	0 	0 	
0.995 5.29035e-14 	0 	0 	
