0.005 8.20401e-14 	0 	0 	
0.015 -1.41217e-14 	0 	0 	
0.025 4.37103e-14 	0 	0 	
0.035 1.00197e-13 	0 	0 	
0.045 -4.10201e-14 	0 	0 	
0.055 6.72463e-14 	0 	0 	
0.065 4.909e-14 	0 	0 	
0.075 -1.41217e-13 	0 	0 	
0.085 2.89156e-14 	0 	0 	
0.095 1.0087e-14 	0 	0 	
0.105 -3.16058e-14 	0 	0 	
0.115 7.86778e-14 	3.033e-30 	0 	
0.125 1.6812e-14 	0 	0 	
0.135 -8.0693e-15 	0 	0 	
0.145 -3.76579e-14 	0 	0 	
0.155 -5.58142e-14 	0 	0 	
0.165 9.41482e-15 	0 	0 	
0.175 -3.36234e-15 	0 	0 	
0.185 2.75709e-14 	0 	0 	
0.195 3.63131e-14 	0 	0 	
0.205 3.22779e-14 	0 	0 	
0.215 9.75073e-14 	0 	0 	
0.225 4.0348e-14 	0 	0 	
0.235 1.3651e-13 	0 	0 	
0.245 1.10956e-13 	0 	0 	
0.255 -1.15663e-13 	0 	0 	
0.265 -5.37962e-15 	0 	0 	
0.275 -7.06088e-14 	0 	0 	
0.285 -6.59014e-14 	0 	0 	
0.295 -2.35362e-14 	0 	0 	
0.305 3.63128e-14 	0 	0 	
0.315 -4.30374e-14 	0 	0 	
0.325 1.78203e-13 	0 	0 	
0.335 8.00233e-14 	0 	0 	
0.345 2.28636e-14 	0 	0 	
0.355 -1.18353e-13 	0 	0 	
0.365 8.06965e-15 	0 	0 	
0.375 -5.04348e-14 	0 	0 	
0.385 1.14318e-14 	0 	0 	
0.395 -5.31243e-14 	0 	0 	
0.405 4.57275e-14 	0 	0 	
0.415 1.27767e-14 	0 	0 	
0.425 3.69855e-14 	0 	0 	
0.435 2.35056e-24 	0 	0 	
0.445 0.0157899 	0 	0 	
0.455 1.11176 	0 	0 	
0.465 11.9941 	0 	0 	
0.475 45.6604 	0 	0 	
0.485 96.7969 	0 	0 	
0.495 128.854 	0 	0 	
0.505 130.187 	0 	0 	
0.515 130.077 	0 	0 	
0.525 127.651 	0 	0 	
0.535 97.6253 	0 	0 	
0.545 16.304 	0 	0 	
0.555 0.133383 	0 	0 	
0.565 -2.52172e-14 	0 	0 	
0.575 1.53826e-13 	0 	0 	
0.585 -5.64868e-14 	0 	0 	
0.595 4.0852e-14 	0 	0 	
0.605 4.43828e-14 	0 	0 	
0.615 -5.59825e-14 	0 	0 	
0.625 1.26084e-14 	0 	0 	
0.635 8.57394e-15 	0 	0 	
0.645 -8.81442e-25 	0 	0 	
0.655 4.18608e-14 	0 	0 	
0.665 -8.8765e-14 	0 	0 	
0.675 7.5652e-15 	0 	0 	
0.685 5.74955e-14 	0 	0 	
0.695 -9.58242e-15 	0 	0 	
0.705 -1.3113e-14 	0 	0 	
0.715 -2.47128e-14 	0 	0 	
0.725 8.06953e-14 	0 	0 	
0.735 -6.10259e-14 	0 	0 	
0.745 2.92521e-14 	0 	0 	
0.755 -2.16869e-14 	0 	0 	
0.765 -5.9513e-14 	0 	0 	
0.775 -1.26089e-14 	0 	0 	
0.785 7.41388e-14 	0 	0 	
0.795 -1.56852e-13 	0 	0 	
0.805 6.20346e-14 	0 	0 	
0.815 -3.42956e-14 	0 	0 	
0.825 9.07827e-14 	0 	0 	
0.835 -1.03391e-13 	0 	0 	
0.845 4.99304e-14 	0 	0 	
0.855 -3.02608e-15 	0 	0 	
0.865 3.37915e-14 	0 	0 	
0.875 -3.25006e-19 	0 	0 	
0.885 4.23651e-14 	0 	0 	
0.895 -9.07824e-15 	0 	0 	
0.905 -1.66433e-14 	0 	0 	
0.915 1.03391e-13 	0 	0 	
0.925 4.5391e-14 	0 	0 	
0.935 -2.52171e-14 	0 	0 	
0.945 -2.52172e-14 	0 	0 	
0.955 -6.35475e-14 	0 	0 	
0.965 -5.09388e-14 	0 	0 	
0.975 4.0348e-14 	0 	0 	
0.985 -4.23653e-14 	0 	0 	
0.995 5.44699e-14 	0 	0 	
