0.005 3.75029e-14 	0 	0 	
0.015 -4.09122e-14 	0 	0 	
0.025 1.70465e-14 	0 	0 	
0.035 -2.38654e-14 	0 	0 	
0.045 8.52333e-14 	0 	0 	
0.055 -5.11403e-14 	0 	0 	
0.065 -1.26146e-13 	0 	0 	
0.075 -1.70469e-14 	0 	0 	
0.085 5.45496e-14 	0 	0 	
0.095 3.75024e-14 	0 	0 	
0.105 6.8187e-15 	0 	0 	
0.115 1.32964e-13 	0 	0 	
0.125 3.40934e-14 	0 	0 	
0.135 3.75027e-14 	0 	0 	
0.145 1.36373e-14 	0 	0 	
0.155 -1.15917e-13 	0 	0 	
0.165 2.38653e-14 	0 	0 	
0.175 -1.70467e-14 	0 	0 	
0.185 1.90923e-13 	-1.06457e-29 	0 	
0.195 1.22736e-13 	0 	0 	
0.205 1.46602e-13 	0 	0 	
0.215 1.87514e-13 	0 	0 	
0.225 6.81869e-14 	0 	0 	
0.235 1.56829e-13 	0 	0 	
0.245 -3.40936e-14 	0 	0 	
0.255 6.7164e-13 	-1.11188e-29 	0 	
0.265 1.62905e-10 	-5.55941e-30 	0 	
0.275 2.18419e-08 	0 	0 	
0.285 1.42201e-06 	0 	0 	
0.295 5.03924e-05 	0 	0 	
0.305 0.00107612 	0 	0 	
0.315 0.0143485 	0 	0 	
0.325 0.120864 	0 	0 	
0.335 0.666999 	0 	0 	
0.345 2.51481 	2.38511e-31 	0 	
0.355 6.86629 	-5.06578e-30 	0 	
0.365 14.5075 	0 	0 	
0.375 25.3701 	0 	0 	
0.385 38.8304 	0 	0 	
0.395 54.1199 	-3.08391e-30 	0 	
0.405 70.5139 	0 	0 	
0.415 87.2742 	0 	0 	
0.425 103.414 	0 	0 	
0.435 117.257 	0 	0 	
0.445 126.341 	0 	0 	
0.455 129.713 	0 	0 	
0.465 130.183 	0 	0 	
0.475 130.178 	0 	0 	
0.485 130.158 	0 	0 	
0.495 130.142 	7.13511e-31 	0 	
0.505 130.129 	0 	0 	
0.515 130.118 	0 	0 	
0.525 130.105 	0 	0 	
0.535 130.087 	0 	0 	
0.545 -90.4842 	0 	0 	
0.555 -1.35784e+08 	0 	0 	
0.565 -1.26847e+14 	0 	0 	
0.575 -6.88017e+18 	0 	0 	
0.585 -1.10519e+26 	0 	0 	
0.595 -1.22593e+31 	0 	0 	
0.605 -7.36343e+33 	0 	0 	
0.615 -3.09022e+33 	0 	0 	
0.625 9.17722e+32 	0 	0 	
0.635 2.45136e+30 	0 	0 	
0.645 7.14829e+27 	0 	0 	
0.655 4.68322e+22 	0 	0 	
0.665 -9.48324e+19 	0 	0 	
0.675 1.89256e+18 	0 	0 	
0.685 283344 	0 	0 	
0.695 0.068401 	0 	0 	
0.705 0.00154409 	0 	0 	
0.715 2.86251e-05 	0 	0 	
0.725 3.17996e-07 	0 	0 	
0.735 1.83007e-09 	0 	0 	
0.745 4.55658e-12 	0 	0 	
0.755 1.0228e-13 	0 	0 	
0.765 9.7166e-14 	0 	0 	
0.775 8.94955e-14 	0 	0 	
0.785 5.6254e-14 	0 	0 	
0.795 1.53421e-14 	0 	0 	
0.805 -6.64824e-14 	0 	0 	
0.815 1.7899e-14 	0 	0 	
0.825 -1.27849e-14 	0 	0 	
0.835 1.5342e-14 	0 	0 	
0.845 -3.83549e-14 	0 	0 	
0.855 1.25293e-13 	0 	0 	
0.865 4.34691e-14 	0 	0 	
0.875 6.39255e-14 	0 	0 	
0.885 -3.3241e-14 	0 	0 	
0.895 -5.11401e-15 	0 	0 	
0.905 8.9495e-14 	0 	0 	
0.915 2.557e-14 	0 	0 	
0.925 -2.55701e-14 	0 	0 	
0.935 6.3925e-14 	0 	0 	
0.945 5.114e-15 	0 	0 	
0.955 1.38078e-13 	0 	0 	
0.965 5.62543e-14 	0 	0 	
0.975 -2.55702e-14 	0 	0 	
0.985 -3.5798e-14 	0 	0 	
0.995 1.55977e-13 	0 	0 	
