0.005 -2.35127e-14 	0 	0 	
0.015 4.70254e-14 	0 	0 	
0.025 4.70253e-14 	0 	0 	
0.035 7.05381e-14 	0 	0 	
0.045 4.70253e-14 	0 	0 	
0.055 1.16974e-24 	0 	0 	
0.065 1.17563e-13 	0 	0 	
0.075 2.35127e-14 	0 	0 	
0.085 2.3513e-14 	0 	0 	
0.095 -2.35127e-14 	0 	0 	
0.105 -2.35125e-14 	0 	0 	
0.115 7.0538e-14 	0 	0 	
0.125 -2.35127e-14 	0 	0 	
0.135 2.35127e-14 	0 	0 	
0.145 -2.35127e-14 	0 	0 	
0.155 -9.40508e-14 	0 	0 	
0.165 4.70254e-14 	0 	0 	
0.175 -7.0538e-14 	0 	0 	
0.185 7.05381e-14 	0 	0 	
0.195 -7.0538e-14 	0 	0 	
0.205 -9.40508e-14 	1.10943e-29 	0 	
0.215 -2.35127e-14 	0 	0 	
0.225 -7.0538e-14 	0 	0 	
0.235 -4.70256e-14 	0 	0 	
0.245 -4.70254e-14 	0 	0 	
0.255 3.66797e-12 	0 	0 	
0.265 2.27156e-10 	0 	0 	
0.275 9.48283e-09 	0 	0 	
0.285 2.82791e-07 	0 	0 	
0.295 6.12867e-06 	0 	0 	
0.305 9.77582e-05 	0 	0 	
0.315 0.0011584 	0 	0 	
0.325 0.0102631 	0 	0 	
0.335 0.0682803 	0 	0 	
0.345 0.342475 	0 	0 	
0.355 1.30475 	0 	0 	
0.365 3.84008 	0 	0 	
0.375 8.99637 	0 	0 	
0.385 17.4579 	0 	0 	
0.395 29.2506 	0 	0 	
0.405 43.8722 	0 	0 	
0.415 60.5585 	0 	0 	
0.425 78.4056 	0 	0 	
0.435 96.2463 	0 	0 	
0.445 112.272 	0 	0 	
0.455 123.815 	0 	0 	
0.465 129.083 	0 	0 	
0.475 130.16 	0 	0 	
0.485 130.205 	0 	0 	
0.495 130.181 	0 	0 	
0.505 130.161 	-4.92826e-31 	0 	
0.515 130.145 	8.63229e-31 	0 	
0.525 130.131 	-1.48946e-30 	0 	
0.535 130.119 	-1.16561e-30 	0 	
0.545 130.108 	-1.14988e-30 	0 	
0.555 130.097 	0 	0 	
0.565 130.086 	0 	0 	
0.575 130.075 	2.87217e-30 	0 	
0.585 130.06 	3.0429e-30 	0 	
0.595 130.025 	3.04208e-30 	0 	
0.605 129.841 	3.21145e-30 	0 	
0.615 128.84 	-3.04856e-30 	0 	
0.625 124.249 	0 	0 	
0.635 107.443 	0 	0 	
0.645 65.1323 	0 	0 	
0.655 18.2195 	0 	0 	
0.665 2.50812 	0 	0 	
0.675 0.251737 	0 	0 	
0.685 0.020509 	0 	0 	
0.695 0.00134085 	0 	0 	
0.705 6.86321e-05 	0 	0 	
0.715 2.68644e-06 	0 	0 	
0.725 7.86021e-08 	0 	0 	
0.735 1.67824e-09 	0 	0 	
0.745 2.54995e-11 	0 	0 	
0.755 2.99787e-13 	-4.28274e-30 	0 	
0.765 -5.29035e-14 	0 	0 	
0.775 -3.52691e-14 	0 	0 	
0.785 -1.76345e-14 	0 	0 	
0.795 -5.29035e-14 	-4.52747e-30 	0 	
0.805 3.5269e-14 	-4.64984e-30 	0 	
0.815 5.29034e-14 	0 	0 	
0.825 -5.29035e-14 	0 	0 	
0.835 -1.30391e-24 	0 	0 	
0.845 -1.76345e-14 	0 	0 	
0.855 5.29035e-14 	0 	0 	
0.865 1.05807e-13 	0 	0 	
0.875 5.29035e-14 	0 	0 	
0.885 3.5269e-14 	0 	0 	
0.895 3.5269e-14 	0 	0 	
0.905 8.69232e-25 	0 	0 	
0.915 1.05807e-13 	0 	0 	
0.925 4.34638e-25 	0 	0 	
0.935 -7.0538e-14 	0 	0 	
0.945 -5.29035e-14 	0 	0 	
0.955 5.29035e-14 	0 	0 	
0.965 -5.29035e-14 	0 	0 	
0.975 1.76345e-14 	0 	0 	
0.985 -7.05381e-14 	0 	0 	
0.995 8.81725e-14 	0 	0 	
