0.005 -1.31789e-13 	0 	0 	
0.015 3.98834e-14 	0 	0 	
0.025 -6.93623e-14 	0 	0 	
0.035 -6.58944e-14 	0 	0 	
0.045 1.56064e-14 	0 	0 	
0.055 8.3235e-14 	0 	0 	
0.065 -1.90747e-14 	0 	0 	
0.075 1.73406e-14 	0 	0 	
0.085 3.98832e-14 	2.16585e-29 	0 	
0.095 1.04044e-14 	0 	0 	
0.105 1.40459e-13 	0 	0 	
0.115 1.76874e-13 	-1.10699e-29 	0 	
0.125 -5.20219e-14 	1.08292e-29 	0 	
0.135 5.7224e-14 	0 	0 	
0.145 1.17916e-13 	0 	0 	
0.155 1.45661e-13 	0 	0 	
0.165 2.20226e-13 	0 	0 	
0.175 1.73406e-13 	0 	0 	
0.185 3.98832e-14 	0 	0 	
0.195 6.58943e-14 	0 	0 	
0.205 1.76874e-13 	0 	0 	
0.215 -1.90745e-14 	0 	0 	
0.225 -2.60109e-14 	0 	0 	
0.235 3.29473e-14 	0 	0 	
0.245 6.93618e-15 	0 	0 	
0.255 7.62987e-14 	0 	0 	
0.265 4.74959e-12 	0 	0 	
0.275 1.32575e-09 	0 	0 	
0.285 1.48906e-07 	0 	0 	
0.295 8.25234e-06 	0 	0 	
0.305 0.00025397 	0 	0 	
0.315 0.00458972 	0 	0 	
0.325 0.0502872 	0 	0 	
0.335 0.347345 	0 	0 	
0.345 1.5739 	0 	0 	
0.355 4.93977 	0 	0 	
0.365 11.5354 	0 	0 	
0.375 21.6157 	0 	0 	
0.385 34.6623 	0 	0 	
0.395 49.8655 	0 	0 	
0.405 66.429 	0 	0 	
0.415 83.5784 	0 	0 	
0.425 100.348 	0 	0 	
0.435 115.125 	0 	0 	
0.445 125.35 	0 	0 	
0.455 129.514 	0 	0 	
0.465 130.174 	0 	0 	
0.475 130.178 	0 	0 	
0.485 130.154 	0 	0 	
0.495 22.7401 	0 	0 	
0.505 -3.37647e+13 	0 	0 	
0.515 -2.18576e+19 	0 	0 	
0.525 -2.44469e+23 	0 	0 	
0.535 -4.16843e+33 	0 	0 	
0.545 -1.13533e+40 	0 	0 	
0.555 -4.8269e+46 	0 	0 	
0.565 -2.41587e+51 	0 	0 	
0.575 -4.36105e+54 	0 	0 	
0.585 -3.20799e+59 	0 	0 	
0.595 -2.991e+63 	0 	0 	
0.605 -2.08473e+65 	0 	0 	
0.615 1.64215e+68 	0 	0 	
0.625 7.13415e+64 	0 	0 	
0.635 4.11319e+57 	0 	0 	
0.645 9.12409e+49 	0 	0 	
0.655 6.05892e+34 	0 	0 	
0.665 7.11106e+30 	0 	0 	
0.675 4.41449e+25 	0 	0 	
0.685 8.00751e+13 	0 	0 	
0.695 3.51112e+06 	0 	0 	
0.705 0.000198193 	0 	0 	
0.715 2.44608e-06 	0 	0 	
0.725 1.62924e-08 	0 	0 	
0.735 4.78496e-11 	0 	0 	
0.745 1.9118e-13 	0 	0 	
0.755 9.49399e-14 	0 	0 	
0.765 8.58363e-14 	0 	0 	
0.775 5.85245e-14 	0 	0 	
0.785 2.73114e-14 	0 	0 	
0.795 -2.08089e-14 	0 	0 	
0.805 -2.60109e-14 	0 	0 	
0.815 8.81478e-25 	0 	0 	
0.825 -1.62568e-13 	0 	0 	
0.835 -7.80327e-15 	0 	0 	
0.845 -1.17049e-14 	0 	0 	
0.855 2.34099e-14 	0 	0 	
0.865 -4.29182e-14 	0 	0 	
0.875 4.55193e-14 	0 	0 	
0.885 1.17049e-14 	0 	0 	
0.895 2.8612e-14 	0 	0 	
0.905 -1.28754e-13 	0 	0 	
0.915 -1.02743e-13 	0 	0 	
0.925 -5.2022e-14 	0 	0 	
0.935 -2.34097e-14 	0 	0 	
0.945 2.60078e-15 	0 	0 	
0.955 -2.34098e-14 	0 	0 	
0.965 -9.10381e-15 	0 	0 	
0.975 5.2022e-14 	0 	0 	
0.985 1.95082e-14 	0 	0 	
0.995 8.97375e-14 	0 	0 	
