0.005 1.8829e-13 	0 	0 	
0.015 1.07592e-14 	0 	0 	
0.025 -4.70726e-14 	0 	0 	
0.035 -1.29113e-13 	0 	0 	
0.045 8.74202e-15 	0 	0 	
0.055 2.68985e-15 	0 	0 	
0.065 -1.54668e-14 	0 	0 	
0.075 -8.40581e-14 	0 	0 	
0.085 5.11071e-14 	0 	0 	
0.095 1.21044e-14 	0 	0 	
0.105 -2.01739e-15 	0 	0 	
0.115 2.62261e-14 	4.66616e-31 	0 	
0.125 -8.40579e-14 	0 	0 	
0.135 1.8829e-14 	0 	0 	
0.145 0 	0 	0 	
0.155 -3.29509e-14 	0 	0 	
0.165 0 	0 	0 	
0.175 -3.36232e-15 	0 	0 	
0.185 9.81795e-14 	0 	0 	
0.195 -7.26262e-14 	0 	0 	
0.205 0 	0 	0 	
0.215 -2.95884e-14 	0 	0 	
0.225 2.01739e-14 	0 	0 	
0.235 5.85044e-14 	0 	0 	
0.245 -9.41451e-15 	0 	0 	
0.255 0 	0 	0 	
0.265 6.72465e-14 	0 	0 	
0.275 0 	0 	0 	
0.285 -1.29785e-13 	0 	0 	
0.295 0 	0 	0 	
0.305 -1.07594e-14 	0 	0 	
0.315 -6.05217e-15 	0 	0 	
0.325 -5.71595e-14 	0 	0 	
0.335 4.50549e-14 	0 	0 	
0.345 3.4968e-14 	0 	0 	
0.355 2.01738e-15 	0 	0 	
0.365 -1.07594e-14 	0 	0 	
0.375 -8.4058e-14 	0 	0 	
0.385 7.46436e-14 	0 	0 	
0.395 -3.36232e-14 	0 	0 	
0.405 1.21045e-14 	0 	0 	
0.415 1.12301e-13 	0 	0 	
0.425 -3.69855e-14 	0 	0 	
0.435 -2.15188e-14 	0 	0 	
0.445 0 	0 	0 	
0.455 -7.59885e-14 	0 	0 	
0.465 6.72465e-14 	0 	0 	
0.475 0 	0 	0 	
0.485 0 	0 	0 	
0.495 21.8387 	0 	0 	
0.505 71.1494 	0 	0 	
0.515 1.36174e-14 	0 	0 	
0.525 7.31301e-14 	0 	0 	
0.535 1.00365e-13 	0 	0 	
0.545 -2.42089e-14 	0 	0 	
0.555 -4.58956e-14 	0 	0 	
0.565 5.04324e-15 	0 	0 	
0.575 2.52174e-15 	0 	0 	
0.585 -6.05216e-15 	0 	0 	
0.595 9.12868e-14 	0 	0 	
0.605 4.74086e-14 	0 	0 	
0.615 -1.66434e-14 	0 	0 	
0.625 -3.78259e-14 	0 	0 	
0.635 1.96696e-14 	0 	0 	
0.645 4.58955e-14 	0 	0 	
0.655 6.70781e-14 	0 	0 	
0.665 -2.52157e-15 	0 	0 	
0.675 6.30438e-14 	0 	0 	
0.685 0 	0 	0 	
0.695 -1.30122e-13 	0 	0 	
0.705 -8.47302e-14 	0 	0 	
0.715 -1.20034e-13 	0 	0 	
0.725 5.04345e-14 	0 	0 	
0.735 -7.5652e-14 	0 	0 	
0.745 -2.52174e-14 	0 	0 	
0.755 0 	0 	0 	
0.765 0 	0 	0 	
0.775 -7.56522e-14 	0 	0 	
0.785 -9.83479e-14 	0 	0 	
0.795 -6.55655e-15 	0 	0 	
0.805 7.16174e-14 	0 	0 	
0.815 -6.20346e-14 	0 	0 	
0.825 1.76523e-14 	0 	0 	
0.835 -5.5478e-14 	0 	0 	
0.845 4.23651e-14 	0 	0 	
0.855 -1.91653e-14 	0 	0 	
0.865 -8.72518e-14 	0 	0 	
0.875 -1.32218e-24 	0 	0 	
0.885 7.01041e-14 	0 	0 	
0.895 -1.65931e-13 	0 	0 	
0.905 0 	0 	0 	
0.915 4.69045e-14 	0 	0 	
0.925 2.52186e-15 	0 	0 	
0.935 -1.61392e-14 	0 	0 	
0.945 -3.12697e-14 	0 	0 	
0.955 8.77563e-14 	0 	0 	
0.965 7.36348e-14 	0 	0 	
0.975 -1.43739e-13 	0 	0 	
0.985 -3.58083e-14 	0 	0 	
0.995 2.92521e-14 	0 	0 	
