0.005 1.01542e-13 	0 	0 	
0.015 -1.41217e-14 	0 	0 	
0.025 -5.37972e-14 	0 	0 	
0.035 3.42955e-14 	0 	0 	
0.045 7.39743e-15 	0 	0 	
0.055 -5.44696e-14 	0 	0 	
0.065 -3.3623e-14 	0 	0 	
0.075 1.98377e-13 	0 	0 	
0.085 2.08463e-14 	0 	0 	
0.095 1.07594e-14 	0 	0 	
0.105 5.91767e-14 	0 	0 	
0.115 9.01101e-14 	3.2663e-30 	0 	
0.125 -8.40579e-14 	0 	0 	
0.135 -1.08939e-13 	0 	0 	
0.145 6.05216e-15 	0 	0 	
0.155 -2.35048e-24 	0 	0 	
0.165 1.27768e-14 	0 	0 	
0.175 8.06951e-14 	0 	0 	
0.185 1.62063e-13 	0 	0 	
0.195 -1.81565e-14 	0 	0 	
0.205 -1.43234e-13 	0 	0 	
0.215 -6.45566e-14 	0 	0 	
0.225 -9.07826e-14 	0 	0 	
0.235 7.26257e-14 	0 	0 	
0.245 9.14546e-14 	0 	0 	
0.255 3.36234e-14 	0 	0 	
0.265 5.31245e-14 	0 	0 	
0.275 -1.10956e-13 	0 	0 	
0.285 -3.09332e-14 	0 	0 	
0.295 2.4881e-14 	0 	0 	
0.305 -1.16336e-13 	0 	0 	
0.315 -2.15191e-14 	0 	0 	
0.325 2.35364e-14 	0 	0 	
0.335 -2.4209e-14 	0 	0 	
0.345 9.07823e-14 	0 	0 	
0.355 -1.0087e-14 	0 	0 	
0.365 3.7658e-14 	0 	0 	
0.375 -5.04347e-14 	0 	0 	
0.385 -1.57356e-13 	0 	0 	
0.395 8.06955e-14 	0 	0 	
0.405 1.00197e-13 	0 	0 	
0.415 2.75711e-14 	0 	0 	
0.425 -3.69853e-14 	0 	0 	
0.435 0.000546067 	0 	0 	
0.445 0.139687 	0 	0 	
0.455 3.26315 	0 	0 	
0.465 20.1191 	0 	0 	
0.475 57.8913 	0 	0 	
0.485 105.842 	0 	0 	
0.495 129.556 	0 	0 	
0.505 130.187 	0 	0 	
0.515 130.119 	0 	0 	
0.525 129.331 	0 	0 	
0.535 118.644 	0 	0 	
0.545 50.8037 	0 	0 	
0.555 1.73534 	0 	0 	
0.565 0.00371529 	0 	0 	
0.575 3.7826e-14 	0 	0 	
0.585 5.54782e-14 	0 	0 	
0.595 -5.85041e-14 	0 	0 	
0.605 4.28693e-14 	0 	0 	
0.615 4.23651e-14 	0 	0 	
0.625 2.52173e-14 	0 	0 	
0.635 5.90084e-14 	0 	0 	
0.645 -4.13563e-14 	0 	0 	
0.655 6.6574e-14 	0 	0 	
0.665 -5.39653e-14 	0 	0 	
0.675 1.26087e-14 	0 	0 	
0.685 -4.5355e-30 	0 	0 	
0.695 5.59828e-14 	0 	0 	
0.705 5.69912e-14 	0 	0 	
0.715 -1.48278e-13 	0 	0 	
0.725 7.56525e-15 	0 	0 	
0.735 5.44694e-14 	0 	0 	
0.745 -2.87478e-14 	0 	0 	
0.755 7.21216e-14 	0 	0 	
0.765 3.32869e-14 	0 	0 	
0.775 -1.76523e-14 	0 	0 	
0.785 -4.94258e-14 	0 	0 	
0.795 5.54783e-15 	0 	0 	
0.805 -1.16001e-14 	0 	0 	
0.815 1.15998e-14 	0 	0 	
0.825 5.54781e-14 	0 	0 	
0.835 -6.85913e-14 	0 	0 	
0.845 1.3222e-24 	0 	0 	
0.855 4.53912e-15 	0 	0 	
0.865 2.77391e-14 	0 	0 	
0.875 -1.26085e-14 	0 	0 	
0.885 7.06088e-14 	0 	0 	
0.895 -2.82432e-14 	0 	0 	
0.905 -5.85041e-14 	0 	0 	
0.915 -2.16869e-14 	0 	0 	
0.925 1.48783e-13 	0 	0 	
0.935 4.38786e-14 	0 	0 	
0.945 -1.22052e-13 	0 	0 	
0.955 -3.0765e-14 	0 	0 	
0.965 -7.36345e-14 	0 	0 	
0.975 7.31304e-14 	0 	0 	
0.985 -4.7913e-14 	0 	0 	
0.995 -1.46262e-14 	0 	0 	
