0.005 4.90141e-14 	0 	0 	
0.015 8.22944e-14 	0 	0 	
0.025 9.99288e-14 	0 	0 	
0.035 1.08746e-13 	0 	0 	
0.045 1.02868e-13 	0 	0 	
0.055 8.81726e-14 	0 	0 	
0.065 4.70254e-14 	0 	0 	
0.075 -4.11472e-14 	0 	0 	
0.085 -7.93554e-14 	0 	0 	
0.095 -3.82082e-14 	0 	0 	
0.105 -3.5269e-14 	0 	0 	
0.115 -7.93553e-14 	0 	0 	
0.125 -1.26381e-13 	0 	0 	
0.135 -1.85162e-13 	0 	0 	
0.145 -2.2631e-13 	-1.63152e-30 	0 	
0.155 -2.14553e-13 	1.30522e-30 	0 	
0.165 -1.73406e-13 	0 	0 	
0.175 -1.38137e-13 	0 	0 	
0.185 -8.81725e-14 	0 	0 	
0.195 -5.87815e-15 	0 	0 	
0.205 4.99645e-14 	0 	0 	
0.215 5.58427e-14 	0 	0 	
0.225 8.22944e-14 	1.63152e-31 	0 	
0.235 1.11685e-13 	6.85239e-30 	0 	
0.245 8.52335e-14 	6.52609e-31 	0 	
0.255 4.99645e-14 	0 	0 	
0.265 3.82081e-14 	0 	0 	
0.275 2.93909e-14 	0 	0 	
0.285 4.11472e-14 	0 	0 	
0.295 6.46599e-14 	0 	0 	
0.305 7.05381e-14 	0 	0 	
0.315 6.7599e-14 	0 	0 	
0.325 4.11472e-14 	0 	0 	
0.335 2.93908e-15 	0 	0 	
0.345 -2.93909e-14 	0 	0 	
0.355 -6.17208e-14 	0 	0 	
0.365 -8.81725e-14 	0 	0 	
0.375 -9.11115e-14 	0 	0 	
0.385 -7.93552e-14 	0 	0 	
0.395 0.0166211 	0 	0 	
0.405 2.29752 	0 	0 	
0.415 11.8004 	0 	0 	
0.425 30.0356 	0 	0 	
0.435 53.2973 	0 	0 	
0.445 77.6207 	0 	0 	
0.455 99.9892 	0 	0 	
0.465 116.546 	0 	0 	
0.475 125.562 	0 	0 	
0.485 129.537 	0 	0 	
0.495 130.804 	0 	0 	
0.505 130.634 	0 	0 	
0.515 130.103 	0 	0 	
0.525 129.556 	0 	0 	
0.535 129.197 	0 	0 	
0.545 129.263 	0 	0 	
0.555 129.909 	0 	0 	
0.565 130.584 	0 	0 	
0.575 129.792 	-2.36513e-30 	0 	
0.585 122.281 	-1.19478e-30 	0 	
0.595 96.3134 	0 	0 	
0.605 51.7057 	0 	0 	
0.615 14.2874 	0 	0 	
0.625 1.01011 	0 	0 	
0.635 -1.10216e-13 	0 	0 	
0.645 -6.17207e-14 	0 	0 	
0.655 -1.54302e-14 	0 	0 	
0.665 -1.10216e-14 	0 	0 	
0.675 -2.20431e-14 	0 	0 	
0.685 -6.61293e-15 	0 	0 	
0.695 2.64518e-14 	0 	0 	
0.705 3.5269e-14 	0 	0 	
0.715 4.1882e-14 	0 	0 	
0.725 9.25811e-14 	0 	0 	
0.735 1.32259e-13 	0 	0 	
0.745 9.25811e-14 	0 	0 	
0.755 3.96777e-14 	0 	0 	
0.765 2.64518e-14 	0 	0 	
0.775 1.54302e-14 	0 	0 	
0.785 -1.54302e-14 	0 	0 	
0.795 -2.64518e-14 	0 	0 	
0.805 2.2043e-15 	0 	0 	
0.815 2.42475e-14 	-5.87348e-30 	0 	
0.825 1.98389e-14 	0 	0 	
0.835 6.61295e-15 	0 	0 	
0.845 0 	0 	0 	
0.855 -6.61295e-15 	0 	0 	
0.865 -3.74733e-14 	0 	0 	
0.875 -7.0538e-14 	0 	0 	
0.885 -6.17208e-14 	0 	0 	
0.895 -4.40863e-14 	0 	0 	
0.905 -4.1882e-14 	0 	0 	
0.915 -3.08604e-14 	0 	0 	
0.925 -2.20432e-14 	0 	0 	
0.935 -2.20432e-14 	0 	0 	
0.945 -1.32259e-14 	0 	0 	
0.955 1.76345e-14 	0 	0 	
0.965 6.83338e-14 	0 	0 	
0.975 9.91942e-14 	0 	0 	
0.985 8.81726e-14 	0 	0 	
0.995 6.06681e-14 	0 	0 	
