0.005 1.98572e-13 	0 	0 	
0.015 -6.7599e-14 	0 	0 	
0.025 5.91491e-14 	0 	0 	
0.035 9.29486e-14 	0 	0 	
0.045 -7.18239e-14 	0 	0 	
0.055 1.39423e-13 	0 	0 	
0.065 -4.22494e-15 	-5.62874e-30 	0 	
0.075 -4.22494e-15 	0 	0 	
0.085 -1.05623e-13 	0 	0 	
0.095 -8.44988e-14 	0 	0 	
0.105 2.95746e-14 	0 	0 	
0.115 3.80244e-14 	0 	0 	
0.125 -4.64743e-14 	0 	0 	
0.135 -8.44987e-14 	0 	0 	
0.145 -7.60489e-14 	0 	0 	
0.155 1.39423e-13 	0 	0 	
0.165 8.44988e-15 	0 	0 	
0.175 9.29486e-14 	0 	0 	
0.185 -3.80244e-14 	0 	0 	
0.195 1.14073e-13 	0 	0 	
0.205 2.11247e-14 	0 	0 	
0.215 2.53496e-14 	0 	0 	
0.225 6.33741e-14 	0 	0 	
0.235 -1.09848e-13 	0 	0 	
0.245 -8.87237e-14 	0 	0 	
0.255 -5.91491e-14 	0 	0 	
0.265 -1.68997e-14 	0 	0 	
0.275 -8.02738e-14 	0 	0 	
0.285 8.44988e-15 	0 	0 	
0.295 5.91491e-14 	0 	0 	
0.305 4.22494e-15 	0 	0 	
0.315 8.02738e-14 	0 	0 	
0.325 1.52098e-13 	0 	0 	
0.335 -7.18239e-14 	0 	0 	
0.345 2.24767e-12 	0 	0 	
0.355 1.13499e-08 	0 	0 	
0.365 4.7789e-06 	0 	0 	
0.375 0.000503274 	0 	0 	
0.385 0.0178297 	0 	0 	
0.395 0.266941 	0 	0 	
0.405 1.96589 	0 	0 	
0.415 7.99305 	0 	0 	
0.425 20.8354 	0 	0 	
0.435 40.4057 	0 	0 	
0.445 64.7296 	1.99456e-30 	0 	
0.455 90.9445 	0 	0 	
0.465 114.444 	0 	0 	
0.475 127.739 	0 	0 	
0.485 130.166 	3.53828e-31 	0 	
0.495 130.189 	0 	0 	
0.505 130.159 	0 	0 	
0.515 130.137 	1.78035e-31 	0 	
0.525 130.118 	0 	0 	
0.535 130.102 	0 	0 	
0.545 130.085 	0 	0 	
0.555 130.066 	-3.88836e-30 	0 	
0.565 129.999 	0 	0 	
0.575 129.547 	0 	0 	
0.585 126.69 	0 	0 	
0.595 98.9528 	0 	0 	
0.605 22.6799 	0 	0 	
0.615 0.94652 	0 	0 	
0.625 0.0171593 	0 	0 	
0.635 0.000129782 	0 	0 	
0.645 3.01968e-07 	0 	0 	
0.655 8.45219e-11 	0 	0 	
0.665 -3.16875e-15 	0 	0 	
0.675 -1.58435e-14 	0 	0 	
0.685 7.60486e-14 	0 	0 	
0.695 -1.26747e-14 	0 	0 	
0.705 6.97114e-14 	0 	0 	
0.715 -6.65425e-14 	0 	0 	
0.725 -3.48559e-14 	4.92515e-30 	0 	
0.735 6.3375e-15 	0 	0 	
0.745 -6.33739e-14 	0 	0 	
0.755 -4.11928e-14 	0 	0 	
0.765 -8.55551e-14 	-1.33683e-29 	0 	
0.775 -6.33772e-15 	0 	0 	
0.785 3.16867e-14 	0 	0 	
0.795 3.16873e-14 	0 	0 	
0.805 3.80242e-14 	0 	0 	
0.815 -5.0699e-14 	6.68414e-30 	0 	
0.825 7.60486e-14 	2.99027e-30 	0 	
0.835 9.50612e-15 	0 	0 	
0.845 -5.70364e-14 	0 	0 	
0.855 6.33735e-15 	0 	0 	
0.865 1.20411e-13 	0 	0 	
0.875 -3.80247e-14 	0 	0 	
0.885 2.85183e-14 	0 	0 	
0.895 -2.21811e-14 	0 	0 	
0.905 3.16869e-14 	0 	0 	
0.915 -1.90121e-14 	0 	0 	
0.925 1.26748e-14 	0 	0 	
0.935 1.17242e-13 	0 	0 	
0.945 1.61604e-13 	0 	0 	
0.955 -9.50606e-15 	0 	0 	
0.965 4.75309e-14 	0 	0 	
0.975 7.92177e-14 	0 	0 	
0.985 4.43617e-14 	0 	0 	
0.995 1.90121e-14 	0 	0 	
