0.005 4.90141e-14 	0 	0 	
0.015 8.22944e-14 	0 	0 	
0.025 9.40508e-14 	0 	0 	
0.035 9.40508e-14 	0 	0 	
0.045 8.81726e-14 	0 	0 	
0.055 6.17208e-14 	0 	0 	
0.065 2.64518e-14 	0 	0 	
0.075 -1.17564e-14 	0 	0 	
0.085 -3.82081e-14 	0 	0 	
0.095 -2.64518e-14 	0 	0 	
0.105 -3.23299e-14 	0 	0 	
0.115 -8.22944e-14 	0 	0 	
0.125 -1.41076e-13 	0 	0 	
0.135 -1.9398e-13 	0 	0 	
0.145 -2.23371e-13 	-3.26305e-31 	0 	
0.155 -2.08675e-13 	0 	0 	
0.165 -1.67528e-13 	0 	0 	
0.175 -1.32259e-13 	0 	0 	
0.185 -8.52335e-14 	0 	0 	
0.195 -5.87815e-15 	0 	0 	
0.205 4.70254e-14 	0 	0 	
0.215 4.70254e-14 	0 	0 	
0.225 5.58426e-14 	0 	0 	
0.235 6.17208e-14 	6.52609e-31 	0 	
0.245 6.17208e-14 	0 	0 	
0.255 8.81725e-14 	0 	0 	
0.265 8.81725e-14 	0 	0 	
0.275 5.58426e-14 	0 	0 	
0.285 5.58426e-14 	0 	0 	
0.295 7.05381e-14 	0 	0 	
0.305 6.7599e-14 	0 	0 	
0.315 5.87817e-14 	0 	0 	
0.325 2.64518e-14 	0 	0 	
0.335 -2.64518e-14 	0 	0 	
0.345 -7.05381e-14 	0 	0 	
0.355 -7.93554e-14 	0 	0 	
0.365 -5.87818e-14 	0 	0 	
0.375 -5.58426e-14 	0 	0 	
0.385 -7.34771e-14 	0 	0 	
0.395 0.1279 	0 	0 	
0.405 2.90878 	0 	0 	
0.415 12.9507 	0 	0 	
0.425 30.9362 	0 	0 	
0.435 53.1407 	0 	0 	
0.445 76.0964 	0 	0 	
0.455 97.3816 	0 	0 	
0.465 114.667 	0 	0 	
0.475 125.517 	0 	0 	
0.485 129.897 	0 	0 	
0.495 130.95 	0 	0 	
0.505 130.894 	0 	0 	
0.515 130.386 	0 	0 	
0.525 129.874 	0 	0 	
0.535 129.582 	0 	0 	
0.545 129.698 	0 	0 	
0.555 130.255 	0 	0 	
0.565 130.839 	0 	0 	
0.575 130.084 	-1.35099e-30 	0 	
0.585 122.474 	-5.12304e-31 	0 	
0.595 95.9365 	0 	0 	
0.605 50.8604 	0 	0 	
0.615 13.725 	0 	0 	
0.625 0.890288 	0 	0 	
0.635 -1.03603e-13 	0 	0 	
0.645 -4.8495e-14 	0 	0 	
0.655 -4.40865e-15 	0 	0 	
0.665 -3.30647e-14 	0 	0 	
0.675 -3.96777e-14 	0 	0 	
0.685 2.20431e-14 	0 	0 	
0.695 5.95165e-14 	0 	0 	
0.705 3.52691e-14 	0 	0 	
0.715 2.86561e-14 	0 	0 	
0.725 8.59683e-14 	0 	0 	
0.735 1.30055e-13 	0 	0 	
0.745 9.47855e-14 	0 	0 	
0.755 3.5269e-14 	0 	0 	
0.765 -6.61294e-15 	0 	0 	
0.775 -3.74733e-14 	0 	0 	
0.785 -4.40863e-14 	0 	0 	
0.795 -4.84949e-14 	0 	0 	
0.805 -5.06993e-14 	0 	0 	
0.815 -2.86561e-14 	-4.89455e-31 	0 	
0.825 -6.61294e-15 	0 	0 	
0.835 1.54302e-14 	0 	0 	
0.845 4.1882e-14 	0 	0 	
0.855 5.51079e-14 	0 	0 	
0.865 5.73122e-14 	0 	0 	
0.875 2.64518e-14 	0 	0 	
0.885 -3.96776e-14 	0 	0 	
0.895 -7.27424e-14 	0 	0 	
0.905 -4.1882e-14 	0 	0 	
0.915 4.40862e-15 	0 	0 	
0.925 1.98388e-14 	0 	0 	
0.935 2.64518e-14 	0 	0 	
0.945 3.96777e-14 	0 	0 	
0.955 3.74734e-14 	0 	0 	
0.965 3.30647e-14 	0 	0 	
0.975 3.08604e-14 	0 	0 	
0.985 1.54302e-14 	0 	0 	
0.995 2.20432e-15 	0 	0 	
