0.005 1.03867e-13 	0 	0 	
0.015 1.92657e-13 	0 	0 	
0.025 5.02582e-14 	0 	0 	
0.035 -1.05543e-13 	0 	0 	
0.045 -8.3766e-15 	0 	0 	
0.055 9.04653e-14 	0 	0 	
0.065 3.18301e-14 	0 	0 	
0.075 7.53879e-14 	0 	0 	
0.085 8.87895e-14 	0 	0 	
0.095 7.70626e-14 	0 	0 	
0.105 -4.69078e-14 	0 	0 	
0.115 1.22295e-13 	0 	0 	
0.125 1.00517e-13 	0 	0 	
0.135 9.21402e-14 	0 	0 	
0.145 2.17786e-14 	0 	0 	
0.155 -1.85956e-13 	0 	0 	
0.165 8.3764e-15 	0 	0 	
0.175 -1.67531e-14 	0 	0 	
0.185 1.28997e-13 	0 	0 	
0.195 1.3402e-14 	0 	0 	
0.205 1.34022e-13 	0 	0 	
0.215 2.17785e-14 	0 	0 	
0.225 5.02583e-14 	0 	0 	
0.235 6.36608e-14 	0 	0 	
0.245 3.57108e-29 	0 	0 	
0.255 1.00517e-13 	0 	0 	
0.265 1.37038e-12 	0 	0 	
0.275 4.41662e-10 	0 	0 	
0.285 5.53041e-08 	0 	0 	
0.295 3.27649e-06 	0 	0 	
0.305 0.000109567 	0 	0 	
0.315 0.00219827 	0 	0 	
0.325 0.026528 	0 	0 	
0.335 0.203258 	0 	0 	
0.345 1.03777 	0 	0 	
0.355 3.60649 	0 	0 	
0.365 9.14504 	0 	0 	
0.375 18.2649 	0 	0 	
0.385 30.6409 	0 	0 	
0.395 45.504 	0 	0 	
0.405 62.0251 	0 	0 	
0.415 79.3872 	0 	0 	
0.425 96.6407 	-4.72481e-31 	0 	
0.435 112.289 	0 	0 	
0.445 123.796 	0 	0 	
0.455 129.115 	0 	0 	
0.465 130.153 	1.40183e-30 	0 	
0.475 130.186 	0 	0 	
0.485 130.164 	0 	0 	
0.495 130.147 	0 	0 	
0.505 130.134 	0 	0 	
0.515 130.124 	0 	0 	
0.525 130.115 	0 	0 	
0.535 130.107 	0 	0 	
0.545 130.099 	0 	0 	
0.555 130.092 	0 	0 	
0.565 130.085 	0 	0 	
0.575 130.077 	0 	0 	
0.585 130.068 	0 	0 	
0.595 130.058 	0 	0 	
0.605 130.044 	0 	0 	
0.615 130.019 	0 	0 	
0.625 129.84 	0 	0 	
0.635 129.949 	0 	0 	
0.645 132.232 	0 	0 	
0.655 113.713 	0 	0 	
0.665 40.4033 	0 	0 	
0.675 2.97759 	0 	0 	
0.685 0.116251 	0 	0 	
0.695 0.00323625 	0 	0 	
0.705 6.35051e-05 	0 	0 	
0.715 7.79153e-07 	0 	0 	
0.725 4.80635e-09 	0 	0 	
0.735 1.29692e-11 	0 	0 	
0.745 -2.13599e-14 	0 	0 	
0.755 2.51292e-14 	0 	0 	
0.765 1.38211e-13 	0 	0 	
0.775 8.79524e-14 	0 	0 	
0.785 -2.51268e-15 	0 	0 	
0.795 -1.75903e-14 	0 	0 	
0.805 -2.38728e-14 	0 	0 	
0.815 5.90537e-14 	0 	0 	
0.825 3.14116e-14 	0 	0 	
0.835 -6.40795e-14 	0 	0 	
0.845 1.25663e-15 	0 	0 	
0.855 -2.38726e-14 	0 	0 	
0.865 7.03619e-14 	0 	0 	
0.875 -5.30081e-29 	0 	0 	
0.885 6.40796e-14 	0 	0 	
0.895 2.51272e-15 	0 	0 	
0.905 -4.52325e-14 	0 	0 	
0.915 7.41311e-14 	0 	0 	
0.925 1.00517e-13 	0 	0 	
0.935 -4.77456e-14 	0 	0 	
0.945 -2.51292e-14 	0 	0 	
0.955 -2.51293e-14 	0 	0 	
0.965 7.0362e-14 	0 	0 	
0.975 1.10168e-25 	0 	0 	
0.985 1.10568e-13 	0 	0 	
0.995 -4.27197e-14 	0 	0 	
