0.005 1.04043e-13 	0 	0 	
0.015 -1.38726e-14 	0 	0 	
0.025 -6.93624e-14 	0 	0 	
0.035 -7.97667e-14 	0 	0 	
0.045 -6.58945e-14 	0 	0 	
0.055 -3.46812e-14 	0 	0 	
0.065 1.23119e-13 	0 	0 	
0.075 8.67055e-15 	0 	0 	
0.085 6.41603e-14 	3.85039e-30 	0 	
0.095 6.76284e-14 	0 	0 	
0.105 3.29472e-14 	0 	0 	
0.115 3.81494e-14 	-1.92519e-30 	0 	
0.125 -1.21384e-13 	1.68455e-30 	0 	
0.135 3.4681e-14 	0 	0 	
0.145 -9.71073e-14 	0 	0 	
0.155 4.68196e-14 	0 	0 	
0.165 -5.54903e-14 	0 	0 	
0.175 1.04044e-13 	0 	0 	
0.185 1.07512e-13 	0 	0 	
0.195 1.04039e-14 	0 	0 	
0.205 -9.71072e-14 	0 	0 	
0.215 1.04044e-13 	0 	0 	
0.225 -8.67025e-15 	0 	0 	
0.235 -3.64152e-14 	0 	0 	
0.245 7.80327e-14 	0 	0 	
0.255 -8.8437e-14 	0 	0 	
0.265 -1.73422e-15 	0 	0 	
0.275 -2.60109e-14 	0 	0 	
0.285 1.21384e-13 	0 	0 	
0.295 1.04044e-13 	0 	0 	
0.305 7.28304e-14 	0 	0 	
0.315 -4.85537e-14 	0 	0 	
0.325 9.53734e-14 	0 	0 	
0.335 4.33516e-14 	0 	0 	
0.345 -7.62987e-14 	0 	0 	
0.355 -7.80327e-14 	0 	0 	
0.365 2.2543e-14 	0 	0 	
0.375 8.67038e-15 	0 	0 	
0.385 -1.38725e-14 	0 	0 	
0.395 -1.73406e-15 	0 	0 	
0.405 -1.73406e-13 	0 	0 	
0.415 -4.33515e-14 	0 	0 	
0.425 3.46812e-14 	0 	0 	
0.435 2.42769e-14 	0 	0 	
0.445 -5.72239e-14 	0 	0 	
0.455 5.72241e-14 	0 	0 	
0.465 0.325361 	0 	0 	
0.475 10.6832 	0 	0 	
0.485 56.3618 	0 	0 	
0.495 120.963 	0 	0 	
0.505 130.167 	0 	0 	
0.515 128.028 	0 	0 	
0.525 82.3446 	0 	0 	
0.535 2.98543 	0 	0 	
0.545 -1.43058e-14 	0 	0 	
0.555 5.2022e-14 	0 	0 	
0.565 2.47103e-14 	0 	0 	
0.575 8.45355e-14 	0 	0 	
0.585 2.47105e-14 	0 	0 	
0.595 -5.2022e-14 	0 	0 	
0.605 -3.25137e-14 	0 	0 	
0.615 -3.25134e-14 	0 	0 	
0.625 9.75409e-14 	0 	0 	
0.635 -2.60111e-14 	0 	0 	
0.645 4.03169e-14 	0 	0 	
0.655 -6.11257e-14 	0 	0 	
0.665 1.78174e-13 	0 	0 	
0.675 -6.50275e-14 	0 	0 	
0.685 3.64151e-14 	0 	0 	
0.695 -5.33225e-14 	0 	0 	
0.705 1.30056e-15 	0 	0 	
0.715 -3.90158e-15 	0 	0 	
0.725 5.20217e-14 	0 	0 	
0.735 3.12131e-14 	0 	0 	
0.745 1.43061e-14 	0 	0 	
0.755 2.60109e-15 	0 	0 	
0.765 -1.17048e-14 	0 	0 	
0.775 5.85248e-14 	0 	0 	
0.785 1.07946e-13 	0 	0 	
0.795 -1.00142e-13 	0 	0 	
0.805 5.98248e-14 	0 	0 	
0.815 -9.10381e-14 	0 	0 	
0.825 5.85247e-14 	0 	0 	
0.835 5.7224e-14 	0 	0 	
0.845 -1.4306e-14 	0 	0 	
0.855 -1.30051e-14 	0 	0 	
0.865 7.80326e-14 	0 	0 	
0.875 3.25136e-14 	0 	0 	
0.885 4.42185e-14 	0 	0 	
0.895 2.86121e-14 	0 	0 	
0.905 4.42185e-14 	0 	0 	
0.915 -1.39158e-13 	0 	0 	
0.925 1.95084e-14 	0 	0 	
0.935 -7.54315e-14 	0 	0 	
0.945 -2.60138e-15 	0 	0 	
0.955 2.47104e-14 	0 	0 	
0.965 6.11257e-14 	0 	0 	
0.975 4.55193e-14 	0 	0 	
0.985 1.56065e-14 	0 	0 	
0.995 8.58363e-14 	0 	0 	
