0.005 9.71072e-14 	0 	0 	
0.015 4.85536e-14 	0 	0 	
0.025 4.33516e-14 	0 	0 	
0.035 9.01711e-14 	0 	0 	
0.045 -1.21384e-14 	0 	0 	
0.055 4.85538e-14 	0 	0 	
0.065 5.7224e-14 	0 	0 	
0.075 5.20221e-14 	0 	0 	
0.085 -5.37558e-14 	1.34764e-29 	0 	
0.095 6.93625e-14 	0 	0 	
0.105 -3.81493e-14 	0 	0 	
0.115 1.04044e-14 	-6.97884e-30 	0 	
0.125 -7.80328e-14 	6.73819e-30 	0 	
0.135 1.21384e-14 	0 	0 	
0.145 7.97668e-14 	0 	0 	
0.155 -1.21386e-14 	0 	0 	
0.165 6.58943e-14 	0 	0 	
0.175 8.6703e-15 	0 	0 	
0.185 2.08088e-14 	0 	0 	
0.195 9.19054e-14 	0 	0 	
0.205 1.28321e-13 	0 	0 	
0.215 -3.12131e-14 	0 	0 	
0.225 -1.30055e-13 	0 	0 	
0.235 -3.4681e-14 	0 	0 	
0.245 -7.45648e-14 	0 	0 	
0.255 -8.6702e-15 	0 	0 	
0.265 -1.00575e-13 	0 	0 	
0.275 -1.73406e-14 	0 	0 	
0.285 1.04044e-14 	0 	0 	
0.295 -9.53732e-14 	0 	0 	
0.305 6.24262e-14 	0 	0 	
0.315 1.56065e-14 	0 	0 	
0.325 8.67031e-14 	0 	0 	
0.335 -1.26586e-13 	0 	0 	
0.345 1.3934e-10 	0 	0 	
0.355 2.08505e-07 	0 	0 	
0.365 4.37064e-05 	0 	0 	
0.375 0.00265732 	0 	0 	
0.385 0.0628674 	0 	0 	
0.395 0.677237 	0 	0 	
0.405 3.7554 	0 	0 	
0.415 12.2774 	0 	0 	
0.425 27.625 	0 	0 	
0.435 48.7322 	0 	0 	
0.445 73.378 	0 	0 	
0.455 98.6398 	0 	0 	
0.465 119.44 	0 	0 	
0.475 129.012 	0 	0 	
0.485 130.198 	0 	0 	
0.495 130.179 	0 	0 	
0.505 130.151 	0 	0 	
0.515 130.128 	0 	0 	
0.525 130.102 	0 	0 	
0.535 130.067 	0 	0 	
0.545 130.011 	0 	0 	
0.555 129.906 	0 	0 	
0.565 129.764 	0 	0 	
0.575 130.167 	0 	0 	
0.585 105.695 	0 	0 	
0.595 -120.5 	0 	0 	
0.605 56.3918 	0 	0 	
0.615 2.81078 	0 	0 	
0.625 0.0588449 	0 	0 	
0.635 0.000588801 	0 	0 	
0.645 1.95134e-06 	0 	0 	
0.655 9.67566e-10 	0 	0 	
0.665 1.04043e-13 	0 	0 	
0.675 4.55193e-14 	0 	0 	
0.685 4.42183e-14 	0 	0 	
0.695 7.02297e-14 	0 	0 	
0.705 3.38143e-14 	0 	0 	
0.715 -4.03169e-14 	0 	0 	
0.725 -1.30057e-14 	0 	0 	
0.735 2.73114e-14 	0 	0 	
0.745 -5.72242e-14 	0 	0 	
0.755 3.12129e-14 	0 	0 	
0.765 4.42187e-14 	0 	0 	
0.775 4.5519e-14 	0 	0 	
0.785 -1.04044e-14 	0 	0 	
0.795 7.80325e-14 	0 	0 	
0.805 5.33225e-14 	0 	0 	
0.815 -7.80325e-14 	0 	0 	
0.825 -2.60105e-14 	0 	0 	
0.835 2.73115e-14 	0 	0 	
0.845 3.7716e-14 	0 	0 	
0.855 2.34097e-14 	0 	0 	
0.865 7.80294e-15 	0 	0 	
0.875 -7.153e-14 	0 	0 	
0.885 1.48262e-13 	0 	0 	
0.895 3.12133e-14 	0 	0 	
0.905 -2.47104e-14 	0 	0 	
0.915 -5.0721e-14 	0 	0 	
0.925 6.50287e-15 	0 	0 	
0.935 -9.10367e-15 	0 	0 	
0.945 2.34097e-14 	0 	0 	
0.955 -6.50293e-15 	0 	0 	
0.965 -8.84372e-14 	0 	0 	
0.975 -1.95079e-14 	0 	0 	
0.985 -1.26153e-13 	0 	0 	
0.995 -2.60111e-14 	0 	0 	
