0.005 -8.08246e-14 	0 	0 	
0.015 6.466e-14 	0 	0 	
0.025 1.6165e-14 	0 	0 	
0.035 -4.04125e-14 	0 	0 	
0.045 3.87327e-19 	0 	0 	
0.055 -1.45484e-13 	0 	0 	
0.065 -2.42475e-14 	0 	0 	
0.075 6.46601e-14 	0 	0 	
0.085 0 	0 	0 	
0.095 4.8495e-14 	0 	0 	
0.105 7.27426e-14 	0 	0 	
0.115 8.08249e-15 	0 	0 	
0.125 -8.0825e-15 	0 	0 	
0.135 1.6165e-14 	0 	0 	
0.145 4.04125e-14 	0 	0 	
0.155 -1.6165e-14 	0 	0 	
0.165 -1.6165e-14 	0 	0 	
0.175 4.8495e-14 	0 	0 	
0.185 3.233e-14 	0 	0 	
0.195 4.04125e-14 	0 	0 	
0.205 -6.46596e-14 	0 	0 	
0.215 -1.6165e-14 	0 	0 	
0.225 1.6165e-14 	0 	0 	
0.235 6.466e-14 	0 	0 	
0.245 -2.42475e-14 	0 	0 	
0.255 4.04125e-14 	0 	0 	
0.265 1.78081e-21 	0 	0 	
0.275 8.08249e-15 	0 	0 	
0.285 6.466e-14 	0 	0 	
0.295 1.6165e-14 	0 	0 	
0.305 -8.08246e-15 	0 	0 	
0.315 4.8495e-14 	2.24334e-31 	0 	
0.325 8.08246e-14 	0 	0 	
0.335 7.27425e-14 	-2.24334e-31 	0 	
0.345 -8.89072e-14 	0 	0 	
0.355 -1.05072e-13 	-1.12167e-31 	0 	
0.365 -1.6165e-14 	4.48668e-31 	0 	
0.375 0 	0 	0 	
0.385 -4.8495e-14 	0 	0 	
0.395 6.466e-14 	0 	0 	
0.405 -8.0825e-15 	0 	0 	
0.415 -4.8495e-14 	0 	0 	
0.425 -6.466e-14 	0 	0 	
0.435 2.42475e-14 	0 	0 	
0.445 -1.21237e-13 	0 	0 	
0.455 -5.65775e-14 	0 	0 	
0.465 -6.466e-14 	-2.24334e-31 	0 	
0.475 5.65775e-14 	0 	0 	
0.485 0 	0 	0 	
0.495 21.7008 	0 	0 	
0.505 68.385 	0 	0 	
0.515 3.63712e-14 	0 	0 	
0.525 -9.09281e-14 	0 	0 	
0.535 -6.06188e-15 	0 	0 	
0.545 -3.63713e-14 	0 	0 	
0.555 5.45569e-14 	0 	0 	
0.565 1.39423e-13 	0 	0 	
0.575 -1.63671e-13 	0 	0 	
0.585 2.42474e-14 	0 	0 	
0.595 2.42475e-14 	0 	0 	
0.605 -1.21237e-14 	0 	0 	
0.615 1.81856e-14 	0 	0 	
0.625 -6.06187e-15 	0 	0 	
0.635 -3.63712e-14 	0 	0 	
0.645 5.45569e-14 	0 	0 	
0.655 1.09114e-13 	0 	0 	
0.665 -2.42475e-14 	0 	0 	
0.675 -6.06187e-14 	0 	0 	
0.685 1.09114e-13 	0 	0 	
0.695 -1.21238e-14 	0 	0 	
0.705 -3.03094e-14 	0 	0 	
0.715 -6.06197e-15 	0 	0 	
0.725 -1.81855e-14 	0 	0 	
0.735 5.45565e-14 	0 	0 	
0.745 9.69897e-14 	0 	0 	
0.755 -1.27299e-13 	0 	0 	
0.765 3.03094e-14 	0 	0 	
0.775 3.03094e-14 	0 	0 	
0.785 6.06188e-15 	0 	0 	
0.795 1.21237e-14 	0 	0 	
0.805 1.81855e-14 	0 	0 	
0.815 -2.42474e-14 	0 	0 	
0.825 5.45568e-14 	0 	0 	
0.835 -1.15176e-13 	0 	0 	
0.845 1.81856e-14 	0 	0 	
0.855 4.24326e-14 	0 	0 	
0.865 1.69732e-13 	0 	0 	
0.875 -4.84949e-14 	0 	0 	
0.885 -4.84951e-14 	0 	0 	
0.895 5.45569e-14 	0 	0 	
0.905 -9.09282e-14 	0 	0 	
0.915 -9.09281e-14 	0 	0 	
0.925 9.09282e-14 	0 	0 	
0.935 -7.88044e-14 	0 	0 	
0.945 -6.06186e-14 	0 	0 	
0.955 1.33361e-13 	0 	0 	
0.965 -1.03052e-13 	0 	0 	
0.975 3.63712e-14 	0 	0 	
0.985 -1.03052e-13 	0 	0 	
0.995 -2.42475e-14 	0 	0 	
