0.005 0 	0 	0 	
0.015 0 	0 	0 	
0.025 0 	0 	0 	
0.035 0 	0 	0 	
0.045 8.81725e-15 	0 	0 	
0.055 2.35127e-14 	0 	0 	
0.065 5.87818e-15 	0 	0 	
0.075 -2.35127e-14 	0 	0 	
0.085 -1.46954e-14 	0 	0 	
0.095 0 	0 	0 	
0.105 5.87817e-15 	0 	0 	
0.115 2.35127e-14 	0 	0 	
0.125 2.93909e-14 	0 	0 	
0.135 2.92628e-25 	0 	0 	
0.145 -3.23299e-14 	-3.26305e-31 	0 	
0.155 -3.82081e-14 	0 	0 	
0.165 -3.5269e-14 	0 	0 	
0.175 -3.23299e-14 	0 	0 	
0.185 -1.17564e-14 	0 	0 	
0.195 2.64517e-14 	0 	0 	
0.205 4.11472e-14 	0 	0 	
0.215 2.05736e-14 	0 	0 	
0.225 7.30587e-26 	0 	0 	
0.235 -5.87815e-15 	6.52609e-31 	0 	
0.245 -5.87815e-15 	0 	0 	
0.255 2.49999e-20 	0 	0 	
0.265 8.81727e-15 	0 	0 	
0.275 5.87818e-15 	0 	0 	
0.285 0 	0 	0 	
0.295 0 	0 	0 	
0.305 0 	0 	0 	
0.315 0 	0 	0 	
0.325 5.87817e-15 	0 	0 	
0.335 3.82081e-14 	0 	0 	
0.345 2.21019e-12 	0 	0 	
0.355 1.01734e-10 	0 	0 	
0.365 3.01183e-09 	0 	0 	
0.375 6.43079e-08 	0 	0 	
0.385 1.05616e-06 	0 	0 	
0.395 1.38624e-05 	0 	0 	
0.405 0.000148882 	0 	0 	
0.415 0.00132731 	0 	0 	
0.425 0.00989911 	0 	0 	
0.435 0.0619157 	0 	0 	
0.445 0.324206 	0 	0 	
0.455 1.41441 	0 	0 	
0.465 5.11142 	0 	0 	
0.475 15.2136 	0 	0 	
0.485 37.1562 	0 	0 	
0.495 68.2439 	0 	0 	
0.505 86.1027 	0 	0 	
0.515 72.452 	0 	0 	
0.525 41.4065 	0 	0 	
0.535 16.7068 	0 	0 	
0.545 4.92985 	0 	0 	
0.555 1.1289 	0 	0 	
0.565 0.211078 	0 	0 	
0.575 0.0330052 	-2.44718e-31 	0 	
0.585 0.0043429 	0 	0 	
0.595 0.000479686 	0 	0 	
0.605 4.40992e-05 	0 	0 	
0.615 3.32424e-06 	0 	0 	
0.625 2.00579e-07 	0 	0 	
0.635 9.32064e-09 	0 	0 	
0.645 3.12683e-10 	0 	0 	
0.655 6.70773e-12 	0 	0 	
0.665 4.84949e-14 	0 	0 	
0.675 -1.32259e-14 	0 	0 	
0.685 -2.20432e-15 	0 	0 	
0.695 1.98388e-14 	0 	0 	
0.705 4.1882e-14 	0 	0 	
0.715 2.42475e-14 	0 	0 	
0.725 2.20432e-15 	0 	0 	
0.735 0 	0 	0 	
0.745 0 	0 	0 	
0.755 0 	0 	0 	
0.765 0 	0 	0 	
0.775 0 	0 	0 	
0.785 -8.81725e-15 	0 	0 	
0.795 -1.32259e-14 	0 	0 	
0.805 4.40862e-15 	0 	0 	
0.815 1.32259e-14 	-4.89455e-31 	0 	
0.825 4.40863e-15 	0 	0 	
0.835 0 	0 	0 	
0.845 0 	0 	0 	
0.855 -6.61295e-15 	0 	0 	
0.865 -1.54302e-14 	0 	0 	
0.875 -4.40863e-15 	0 	0 	
0.885 1.32259e-14 	0 	0 	
0.895 1.10216e-14 	0 	0 	
0.905 5.43285e-26 	0 	0 	
0.915 -1.54302e-14 	0 	0 	
0.925 -2.64518e-14 	0 	0 	
0.935 -2.20431e-15 	0 	0 	
0.945 2.64518e-14 	0 	0 	
0.955 1.76345e-14 	0 	0 	
0.965 2.20432e-15 	0 	0 	
0.975 0 	0 	0 	
0.985 0 	0 	0 	
0.995 0 	0 	0 	
