0.005 6.19855e-14 	0 	0 	
0.015 8.20889e-14 	0 	0 	
0.025 2.51291e-14 	0 	0 	
0.035 1.67527e-15 	0 	0 	
0.045 8.54392e-14 	0 	0 	
0.055 -6.70114e-14 	0 	0 	
0.065 2.17787e-13 	0 	0 	
0.075 1.67529e-14 	0 	0 	
0.085 -2.17787e-14 	0 	0 	
0.095 -4.69076e-14 	0 	0 	
0.105 -8.54394e-14 	0 	0 	
0.115 2.17787e-14 	0 	0 	
0.125 1.08893e-13 	0 	0 	
0.135 1.55801e-13 	0 	0 	
0.145 7.7063e-14 	0 	0 	
0.155 3.35054e-14 	0 	0 	
0.165 5.02583e-15 	0 	0 	
0.175 -1.67529e-14 	0 	0 	
0.185 5.86349e-14 	0 	0 	
0.195 4.69077e-14 	0 	0 	
0.205 1.13919e-13 	0 	0 	
0.215 -3.35055e-14 	0 	0 	
0.225 -2.51292e-14 	0 	0 	
0.235 -3.35056e-14 	0 	0 	
0.245 2.17785e-14 	0 	0 	
0.255 -1.67541e-15 	0 	0 	
0.265 -9.04649e-14 	0 	0 	
0.275 -6.70109e-14 	0 	0 	
0.285 3.68563e-14 	0 	0 	
0.295 4.13677e-11 	0 	0 	
0.305 1.1863e-08 	0 	0 	
0.315 1.37908e-06 	0 	0 	
0.325 7.0195e-05 	0 	0 	
0.335 0.00183649 	0 	0 	
0.345 0.0280816 	0 	0 	
0.355 0.247486 	0 	0 	
0.365 1.33724 	0 	0 	
0.375 4.77383 	0 	0 	
0.385 12.0649 	0 	0 	
0.395 23.6685 	0 	0 	
0.405 38.9693 	0 	0 	
0.415 56.8705 	0 	0 	
0.425 76.2135 	0 	0 	
0.435 95.6832 	0 	0 	
0.445 113.157 	0 	0 	
0.455 125.178 	0 	0 	
0.465 129.666 	8.75171e-31 	0 	
0.475 130.193 	0 	0 	
0.485 130.179 	0 	0 	
0.495 130.157 	0 	0 	
0.505 130.14 	0 	0 	
0.515 130.127 	0 	0 	
0.525 130.116 	0 	0 	
0.535 130.106 	0 	0 	
0.545 130.098 	0 	0 	
0.555 130.088 	0 	0 	
0.565 130.08 	0 	0 	
0.575 130.07 	0 	0 	
0.585 130.059 	0 	0 	
0.595 130.04 	0 	0 	
0.605 129.973 	0 	0 	
0.615 128.557 	0 	0 	
0.625 118.098 	0 	0 	
0.635 87.6337 	0 	0 	
0.645 31.0744 	0 	0 	
0.655 2.02411 	0 	0 	
0.665 0.0650753 	0 	0 	
0.675 0.0014992 	0 	0 	
0.685 2.01407e-05 	0 	0 	
0.695 1.28713e-07 	0 	0 	
0.705 3.57376e-10 	0 	0 	
0.715 2.88986e-13 	0 	0 	
0.725 6.28231e-14 	0 	0 	
0.735 9.42344e-14 	0 	0 	
0.745 7.66441e-14 	0 	0 	
0.755 -8.79525e-15 	0 	0 	
0.765 9.54907e-14 	0 	0 	
0.775 1.8847e-14 	0 	0 	
0.785 -8.79501e-15 	0 	0 	
0.795 6.031e-14 	0 	0 	
0.805 3.76935e-15 	0 	0 	
0.815 8.79527e-15 	0 	0 	
0.825 -6.28232e-15 	0 	0 	
0.835 -9.67473e-14 	0 	0 	
0.845 5.02584e-14 	0 	0 	
0.855 1.6334e-14 	0 	0 	
0.865 4.77456e-14 	0 	0 	
0.875 -1.8847e-14 	0 	0 	
0.885 3.39245e-14 	0 	0 	
0.895 9.2978e-14 	0 	0 	
0.905 1.92238e-13 	0 	0 	
0.915 4.40718e-25 	0 	0 	
0.925 -2.51292e-14 	0 	0 	
0.935 -1.19364e-13 	0 	0 	
0.945 -4.02067e-14 	0 	0 	
0.955 -1.00514e-14 	0 	0 	
0.965 7.41312e-14 	0 	0 	
0.975 2.51292e-14 	0 	0 	
0.985 1.63339e-14 	0 	0 	
0.995 -6.15667e-14 	0 	0 	
