0.005 3.38214e-14 	0 	0 	
0.015 6.17208e-14 	0 	0 	
0.025 9.11116e-14 	0 	0 	
0.035 9.11115e-14 	0 	0 	
0.045 3.8208e-14 	0 	0 	
0.055 -1.76345e-14 	0 	0 	
0.065 -3.23299e-14 	0 	0 	
0.075 -3.82081e-14 	0 	0 	
0.085 -4.11472e-14 	0 	0 	
0.095 -4.38752e-25 	0 	0 	
0.105 4.40863e-14 	0 	0 	
0.115 3.82081e-14 	0 	0 	
0.125 -2.49997e-20 	0 	0 	
0.135 -6.17208e-14 	0 	0 	
0.145 -1.26381e-13 	-1.30521e-30 	0 	
0.155 -1.49894e-13 	1.30522e-30 	0 	
0.165 -1.2932e-13 	0 	0 	
0.175 -9.11118e-14 	0 	0 	
0.185 -3.82082e-14 	0 	0 	
0.195 2.93908e-14 	0 	0 	
0.205 6.46599e-14 	0 	0 	
0.215 5.58426e-14 	0 	0 	
0.225 6.46598e-14 	0 	0 	
0.235 7.34771e-14 	3.58935e-30 	0 	
0.245 4.11472e-14 	6.52609e-31 	0 	
0.255 5.87815e-15 	0 	0 	
0.265 -8.81727e-15 	0 	0 	
0.275 -5.87818e-15 	0 	0 	
0.285 0 	0 	0 	
0.295 5.87817e-15 	0 	0 	
0.305 2.35127e-14 	0 	0 	
0.315 3.82081e-14 	0 	0 	
0.325 2.64518e-14 	0 	0 	
0.335 2.9391e-15 	0 	0 	
0.345 -8.81725e-15 	0 	0 	
0.355 -2.35127e-14 	0 	0 	
0.365 -3.5269e-14 	0 	0 	
0.375 -3.233e-14 	0 	0 	
0.385 -3.23299e-14 	0 	0 	
0.395 -4.11472e-14 	0 	0 	
0.405 -2.93909e-14 	0 	0 	
0.415 2.05736e-14 	0 	0 	
0.425 4.70254e-14 	0 	0 	
0.435 0.34007 	0 	0 	
0.445 5.73681 	0 	0 	
0.455 23.8788 	0 	0 	
0.465 54.4201 	0 	0 	
0.475 88.3886 	0 	0 	
0.485 114.375 	0 	0 	
0.495 126.777 	0 	0 	
0.505 130.585 	0 	0 	
0.515 131.45 	0 	0 	
0.525 131.359 	0 	0 	
0.535 127.89 	0 	0 	
0.545 109.152 	0 	0 	
0.555 67.6199 	0 	0 	
0.565 23.9922 	0 	0 	
0.575 3.27483 	-4.89455e-31 	0 	
0.585 1.10216e-14 	0 	0 	
0.595 4.40864e-15 	0 	0 	
0.605 -2.64518e-14 	0 	0 	
0.615 -6.17208e-14 	0 	0 	
0.625 -5.95165e-14 	0 	0 	
0.635 -3.96777e-14 	0 	0 	
0.645 -1.76345e-14 	0 	0 	
0.655 1.10216e-14 	0 	0 	
0.665 -6.61295e-15 	0 	0 	
0.675 -3.5269e-14 	0 	0 	
0.685 -6.61295e-15 	0 	0 	
0.695 2.86561e-14 	0 	0 	
0.705 3.30647e-14 	0 	0 	
0.715 3.5269e-14 	0 	0 	
0.725 4.1882e-14 	0 	0 	
0.735 4.62906e-14 	0 	0 	
0.745 3.96777e-14 	0 	0 	
0.755 1.76345e-14 	0 	0 	
0.765 2.20432e-15 	0 	0 	
0.775 -4.40862e-15 	0 	0 	
0.785 -2.20431e-14 	0 	0 	
0.795 -2.64518e-14 	0 	0 	
0.805 2.2043e-15 	0 	0 	
0.815 2.42475e-14 	-3.18146e-30 	0 	
0.825 1.98389e-14 	0 	0 	
0.835 6.61295e-15 	0 	0 	
0.845 0 	0 	0 	
0.855 -2.20431e-15 	0 	0 	
0.865 -1.10216e-14 	0 	0 	
0.875 -8.81727e-15 	0 	0 	
0.885 8.81726e-15 	0 	0 	
0.895 4.40863e-15 	0 	0 	
0.905 -1.98388e-14 	0 	0 	
0.915 -3.5269e-14 	0 	0 	
0.925 -3.08604e-14 	0 	0 	
0.935 -2.71409e-25 	0 	0 	
0.945 2.20432e-14 	0 	0 	
0.955 1.98388e-14 	0 	0 	
0.965 2.42474e-14 	0 	0 	
0.975 2.20432e-14 	0 	0 	
0.985 6.61295e-15 	0 	0 	
0.995 0 	0 	0 	
