0.005 -1.46955e-14 	0 	0 	
0.015 1.46955e-14 	0 	0 	
0.025 2.50005e-19 	0 	0 	
0.035 -2.93909e-14 	0 	0 	
0.045 4.40861e-14 	0 	0 	
0.055 -5.87815e-14 	0 	0 	
0.065 -4.40863e-14 	0 	0 	
0.075 -1.46953e-14 	0 	0 	
0.085 -1.17563e-13 	0 	0 	
0.095 -7.3477e-14 	0 	0 	
0.105 -7.34772e-14 	0 	0 	
0.115 -5.87817e-14 	0 	0 	
0.125 4.40863e-14 	0 	0 	
0.135 4.40864e-14 	0 	0 	
0.145 2.35127e-13 	0 	0 	
0.155 1.6165e-13 	0 	0 	
0.165 2.35127e-13 	0 	0 	
0.175 1.17563e-13 	0 	0 	
0.185 1.02868e-13 	0 	0 	
0.195 1.46952e-14 	0 	0 	
0.205 -7.34772e-14 	0 	0 	
0.215 4.40862e-14 	0 	0 	
0.225 -1.17564e-13 	0 	0 	
0.235 -2.93908e-14 	0 	0 	
0.245 -2.93908e-14 	0 	0 	
0.255 2.93907e-14 	0 	0 	
0.265 -8.81725e-14 	0 	0 	
0.275 -2.35127e-13 	0 	0 	
0.285 -2.35127e-13 	0 	0 	
0.295 -5.87815e-14 	0 	0 	
0.305 -1.17564e-13 	0 	0 	
0.315 4.40863e-14 	0 	0 	
0.325 1.02868e-13 	0 	0 	
0.335 2.49822e-13 	0 	0 	
0.345 1.46957e-14 	0 	0 	
0.355 1.02868e-13 	0 	0 	
0.365 1.17563e-13 	0 	0 	
0.375 6.03982e-12 	0 	0 	
0.385 5.19636e-08 	0 	0 	
0.395 2.38921e-05 	0 	0 	
0.405 0.00233006 	0 	0 	
0.415 0.0745088 	0 	0 	
0.425 0.959775 	0 	0 	
0.435 5.78287 	0 	0 	
0.445 19.3993 	0 	0 	
0.455 43.5969 	0 	0 	
0.465 75.5175 	0 	0 	
0.475 108.049 	0 	0 	
0.485 127.392 	0 	0 	
0.495 130.207 	0 	0 	
0.505 130.184 	0 	0 	
0.515 130.146 	0 	0 	
0.525 130.113 	0 	0 	
0.535 130.054 	0 	0 	
0.545 129.474 	0 	0 	
0.555 123.669 	0 	0 	
0.565 91.2307 	0 	0 	
0.575 23.3476 	0 	0 	
0.585 1.2102 	0 	0 	
0.595 0.0241912 	0 	0 	
0.605 0.000179233 	0 	0 	
0.615 3.02287e-07 	0 	0 	
0.625 2.79397e-11 	0 	0 	
0.635 2.72632e-24 	0 	0 	
0.645 -1.00001e-19 	0 	0 	
0.655 1.10216e-14 	0 	0 	
0.665 -1.10215e-14 	0 	0 	
0.675 -1.36312e-24 	0 	0 	
0.685 7.7151e-14 	0 	0 	
0.695 1.10215e-14 	0 	0 	
0.705 -2.20433e-14 	0 	0 	
0.715 2.20432e-14 	0 	0 	
0.725 2.20432e-14 	0 	0 	
0.735 -2.2043e-14 	0 	0 	
0.745 -9.9194e-14 	0 	0 	
0.755 -4.40863e-14 	0 	0 	
0.765 -8.81725e-14 	0 	0 	
0.775 -1.32259e-13 	0 	0 	
0.785 -1.21237e-13 	0 	0 	
0.795 -1.10215e-13 	0 	0 	
0.805 -5.51079e-14 	0 	0 	
0.815 -3.30648e-14 	0 	0 	
0.825 -4.40864e-14 	0 	0 	
0.835 4.40863e-14 	0 	0 	
0.845 7.7151e-14 	0 	0 	
0.855 1.10216e-13 	0 	0 	
0.865 1.32259e-13 	0 	0 	
0.875 -3.30646e-14 	0 	0 	
0.885 -4.40863e-14 	0 	0 	
0.895 -1.10216e-14 	0 	0 	
0.905 -1.10215e-14 	0 	0 	
0.915 -1.10216e-14 	0 	0 	
0.925 -2.2043e-14 	0 	0 	
0.935 -3.30647e-14 	0 	0 	
0.945 3.30647e-14 	0 	0 	
0.955 2.20432e-14 	0 	0 	
0.965 5.51079e-14 	0 	0 	
0.975 7.71511e-14 	0 	0 	
0.985 4.40862e-14 	0 	0 	
0.995 4.40863e-14 	0 	0 	
