0.005 4.90141e-14 	0 	0 	
0.015 8.22944e-14 	0 	0 	
0.025 9.99288e-14 	0 	0 	
0.035 9.11115e-14 	0 	0 	
0.045 3.52689e-14 	0 	0 	
0.055 -2.35127e-14 	0 	0 	
0.065 -2.93909e-14 	0 	0 	
0.075 -2.05736e-14 	0 	0 	
0.085 -2.64518e-14 	0 	0 	
0.095 -1.17563e-14 	0 	0 	
0.105 1.17563e-14 	0 	0 	
0.115 1.17563e-14 	0 	0 	
0.125 -1.17563e-14 	0 	0 	
0.135 -5.58426e-14 	0 	0 	
0.145 -9.99289e-14 	-5.87348e-30 	0 	
0.155 -1.26381e-13 	0 	0 	
0.165 -1.58711e-13 	0 	0 	
0.175 -1.96919e-13 	0 	0 	
0.185 -1.85163e-13 	0 	0 	
0.195 -1.35198e-13 	0 	0 	
0.205 -1.08746e-13 	0 	0 	
0.215 -9.69898e-14 	0 	0 	
0.225 -5.58426e-14 	0 	0 	
0.235 -2.9391e-15 	1.1747e-29 	0 	
0.245 8.81725e-15 	0 	0 	
0.255 -5.87815e-15 	0 	0 	
0.265 2.93912e-15 	0 	0 	
0.275 4.99644e-14 	0 	0 	
0.285 7.93551e-14 	0 	0 	
0.295 4.70253e-14 	0 	0 	
0.305 8.81725e-15 	0 	0 	
0.315 -2.93907e-15 	0 	0 	
0.325 2.9391e-15 	0 	0 	
0.335 8.81725e-15 	0 	0 	
0.345 -2.9391e-15 	0 	0 	
0.355 0.0122677 	0 	0 	
0.365 1.65985 	0 	0 	
0.375 8.5085 	0 	0 	
0.385 21.6558 	0 	0 	
0.395 38.5739 	0 	0 	
0.405 56.9148 	0 	0 	
0.415 75.5618 	0 	0 	
0.425 93.4858 	0 	0 	
0.435 109.222 	0 	0 	
0.445 120.787 	0 	0 	
0.455 127.235 	0 	0 	
0.465 129.931 	0 	0 	
0.475 130.705 	0 	0 	
0.485 130.555 	0 	0 	
0.495 130.118 	0 	0 	
0.505 129.787 	0 	0 	
0.515 129.703 	0 	0 	
0.525 129.88 	0 	0 	
0.535 130.263 	0 	0 	
0.545 130.594 	0 	0 	
0.555 130.709 	0 	0 	
0.565 130.594 	0 	0 	
0.575 130.16 	-3.38201e-30 	0 	
0.585 129.691 	-2.70934e-30 	0 	
0.595 129.504 	0 	0 	
0.605 129.324 	0 	0 	
0.615 129.441 	0 	0 	
0.625 128.857 	0 	0 	
0.635 121.895 	0 	0 	
0.645 97.7636 	0 	0 	
0.655 54.6261 	0 	0 	
0.665 16.1724 	0 	0 	
0.675 1.41515 	0 	0 	
0.685 5.29036e-14 	0 	0 	
0.695 4.84949e-14 	0 	0 	
0.705 5.51079e-14 	0 	0 	
0.715 5.51079e-14 	0 	0 	
0.725 6.61295e-14 	0 	0 	
0.735 8.81728e-14 	0 	0 	
0.745 6.39252e-14 	0 	0 	
0.755 1.32259e-14 	0 	0 	
0.765 -2.42475e-14 	0 	0 	
0.775 -4.1882e-14 	0 	0 	
0.785 -5.06992e-14 	0 	0 	
0.795 -5.95165e-14 	0 	0 	
0.805 -4.40863e-14 	0 	0 	
0.815 -1.98388e-14 	-8.81022e-30 	0 	
0.825 -1.98388e-14 	0 	0 	
0.835 -3.08604e-14 	0 	0 	
0.845 -2.20431e-14 	0 	0 	
0.855 8.81725e-15 	0 	0 	
0.865 2.64518e-14 	0 	0 	
0.875 6.61293e-15 	0 	0 	
0.885 -4.1882e-14 	0 	0 	
0.895 -8.59682e-14 	0 	0 	
0.905 -7.49466e-14 	0 	0 	
0.915 -2.64517e-14 	0 	0 	
0.925 -4.40862e-15 	0 	0 	
0.935 8.81725e-15 	0 	0 	
0.945 5.29036e-14 	0 	0 	
0.955 1.1242e-13 	0 	0 	
0.965 1.2785e-13 	0 	0 	
0.975 9.25811e-14 	0 	0 	
0.985 6.61294e-14 	0 	0 	
0.995 4.89007e-14 	0 	0 	
