0.005 -3.37995e-14 	0 	0 	
0.015 1.26748e-14 	0 	0 	
0.025 -8.44987e-15 	0 	0 	
0.035 5.91491e-14 	0 	0 	
0.045 -4.22494e-15 	0 	0 	
0.055 -4.22494e-15 	0 	0 	
0.065 4.22494e-14 	-4.69063e-31 	0 	
0.075 -1.68997e-14 	0 	0 	
0.085 -2.23922e-13 	0 	0 	
0.095 4.22494e-15 	0 	0 	
0.105 6.33741e-14 	0 	0 	
0.115 1.35198e-13 	0 	0 	
0.125 -2.15472e-13 	0 	0 	
0.135 5.06993e-14 	0 	0 	
0.145 -3.37995e-14 	0 	0 	
0.155 -4.22494e-14 	0 	0 	
0.165 8.44988e-15 	0 	0 	
0.175 1.18298e-13 	0 	0 	
0.185 -5.49242e-14 	0 	0 	
0.195 5.91491e-14 	0 	0 	
0.205 4.22494e-15 	0 	0 	
0.215 1.26748e-14 	0 	0 	
0.225 -1.68998e-14 	0 	0 	
0.235 1.18298e-13 	0 	0 	
0.245 -6.33741e-14 	0 	0 	
0.255 3.80244e-14 	0 	0 	
0.265 -1.22523e-13 	0 	0 	
0.275 1.68998e-14 	0 	0 	
0.285 5.91491e-14 	0 	0 	
0.295 2.95746e-14 	0 	0 	
0.305 -3.80244e-14 	0 	0 	
0.315 3.37995e-14 	0 	0 	
0.325 -7.60489e-14 	0 	0 	
0.335 -6.33741e-14 	0 	0 	
0.345 5.49242e-14 	0 	0 	
0.355 -1.68997e-14 	0 	0 	
0.365 1.14073e-13 	0 	0 	
0.375 1.60548e-13 	0 	0 	
0.385 -1.09848e-13 	0 	0 	
0.395 -6.33741e-14 	0 	0 	
0.405 1.26748e-13 	0 	0 	
0.415 2.11247e-14 	0 	0 	
0.425 1.68998e-14 	0 	0 	
0.435 3.37995e-14 	0 	0 	
0.445 5.06992e-14 	0 	0 	
0.455 4.22494e-14 	0 	0 	
0.465 -1.68998e-14 	0 	0 	
0.475 1.73222e-13 	0 	0 	
0.485 4.22494e-15 	0 	0 	
0.495 43.5801 	0 	0 	
0.505 115.167 	0 	0 	
0.515 5.49999 	0 	0 	
0.525 -7.60488e-14 	0 	0 	
0.535 -5.70366e-14 	0 	0 	
0.545 -8.55552e-14 	0 	0 	
0.555 5.70368e-14 	0 	0 	
0.565 -6.33738e-15 	0 	0 	
0.575 -1.90121e-14 	0 	0 	
0.585 -6.97115e-14 	0 	0 	
0.595 -1.48929e-13 	0 	0 	
0.605 2.85183e-14 	0 	0 	
0.615 1.58434e-14 	0 	0 	
0.625 -1.65283e-25 	0 	0 	
0.635 6.33744e-15 	0 	0 	
0.645 1.26747e-14 	0 	0 	
0.655 1.65267e-25 	0 	0 	
0.665 3.1685e-15 	0 	0 	
0.675 2.85186e-14 	0 	0 	
0.685 9.50613e-15 	0 	0 	
0.695 -5.06991e-14 	0 	0 	
0.705 -1.58435e-14 	0 	0 	
0.715 5.51084e-26 	0 	0 	
0.725 -3.48561e-14 	3.51796e-31 	0 	
0.735 1.26749e-14 	0 	0 	
0.745 3.80246e-14 	0 	0 	
0.755 -6.97112e-14 	0 	0 	
0.765 6.3374e-15 	-1.40719e-30 	0 	
0.775 4.75305e-14 	0 	0 	
0.785 -1.07736e-13 	0 	0 	
0.795 -1.36254e-13 	0 	0 	
0.805 -2.53495e-14 	0 	0 	
0.815 -8.87235e-14 	7.03593e-31 	0 	
0.825 -2.85184e-14 	3.51796e-31 	0 	
0.835 -6.65425e-14 	0 	0 	
0.845 -9.50599e-15 	0 	0 	
0.855 6.33737e-15 	0 	0 	
0.865 1.58434e-14 	0 	0 	
0.875 -3.16858e-15 	0 	0 	
0.885 3.80246e-14 	0 	0 	
0.895 -2.53498e-14 	0 	0 	
0.905 -3.48558e-14 	0 	0 	
0.915 6.33742e-14 	0 	0 	
0.925 -4.4362e-14 	0 	0 	
0.935 3.16883e-15 	0 	0 	
0.945 3.80244e-14 	0 	0 	
0.955 6.65429e-14 	0 	0 	
0.965 -4.11934e-14 	0 	0 	
0.975 2.21808e-14 	0 	0 	
0.985 -4.43621e-14 	0 	0 	
0.995 -1.14073e-13 	0 	0 	
