0.005 -5.65775e-14 	0 	0 	
0.015 -1.13155e-13 	0 	0 	
0.025 -4.8495e-14 	0 	0 	
0.035 -8.0825e-14 	0 	0 	
0.045 8.08213e-15 	0 	0 	
0.055 2.42475e-14 	0 	0 	
0.065 4.84949e-14 	0 	0 	
0.075 8.89075e-14 	0 	0 	
0.085 7.27425e-14 	0 	0 	
0.095 2.42475e-14 	0 	0 	
0.105 5.65774e-14 	0 	0 	
0.115 4.04125e-14 	0 	0 	
0.125 2.02062e-13 	0 	0 	
0.135 -1.61646e-14 	0 	0 	
0.145 2.42475e-14 	0 	0 	
0.155 7.27424e-14 	0 	0 	
0.165 -1.45484e-13 	0 	0 	
0.175 7.27422e-14 	0 	0 	
0.185 -1.69733e-13 	0 	0 	
0.195 -3.233e-14 	0 	0 	
0.205 8.08247e-14 	0 	0 	
0.215 7.27421e-14 	0 	0 	
0.225 6.46601e-14 	0 	0 	
0.235 6.466e-14 	0 	0 	
0.245 8.08249e-15 	0 	0 	
0.255 2.42476e-14 	0 	0 	
0.265 8.08251e-15 	0 	0 	
0.275 -1.6165e-14 	0 	0 	
0.285 -3.23301e-14 	0 	0 	
0.295 3.47547e-13 	0 	0 	
0.305 2.33657e-10 	0 	0 	
0.315 5.15854e-08 	7.40303e-30 	0 	
0.325 4.50119e-06 	0 	0 	
0.335 0.000194386 	-6.95437e-30 	0 	
0.345 0.00441545 	0 	0 	
0.355 0.0574121 	-3.70219e-30 	0 	
0.365 0.442695 	1.39255e-29 	0 	
0.375 2.13212 	0 	0 	
0.385 6.83959 	4.57578e-31 	0 	
0.395 15.9571 	0 	0 	
0.405 29.5826 	2.9396e-30 	0 	
0.415 46.7985 	0 	0 	
0.425 66.3518 	-1.37281e-30 	0 	
0.435 86.8585 	0 	0 	
0.445 106.391 	-1.873e-30 	0 	
0.455 121.598 	-2.63576e-30 	0 	
0.465 128.862 	-2.86162e-30 	0 	
0.475 130.165 	0 	0 	
0.485 130.189 	0 	0 	
0.495 130.164 	-9.30863e-31 	0 	
0.505 130.145 	-7.61925e-31 	0 	
0.515 130.13 	0 	0 	
0.525 130.118 	0 	0 	
0.535 130.107 	0 	0 	
0.545 130.097 	0 	0 	
0.555 130.087 	0 	0 	
0.565 130.077 	0 	0 	
0.575 130.066 	0 	0 	
0.585 130.051 	0 	0 	
0.595 129.983 	0 	0 	
0.605 129.428 	0 	0 	
0.615 125.538 	0 	0 	
0.625 104.822 	0 	0 	
0.635 43.1103 	0 	0 	
0.645 3.82299 	0 	0 	
0.655 0.150073 	0 	0 	
0.665 0.00398082 	0 	0 	
0.675 6.31984e-05 	0 	0 	
0.685 5.46379e-07 	0 	0 	
0.695 1.9629e-09 	0 	0 	
0.705 2.46718e-12 	0 	0 	
0.715 -6.66805e-14 	0 	0 	
0.725 -1.81857e-14 	0 	0 	
0.735 1.15176e-13 	0 	0 	
0.745 4.84949e-14 	0 	0 	
0.755 2.42475e-14 	0 	0 	
0.765 3.03094e-14 	0 	0 	
0.775 -8.8142e-25 	0 	0 	
0.785 -6.06186e-15 	0 	0 	
0.795 6.06188e-14 	0 	0 	
0.805 6.66806e-14 	0 	0 	
0.815 8.81442e-25 	0 	0 	
0.825 4.40732e-25 	0 	0 	
0.835 -2.42475e-14 	0 	0 	
0.845 4.8495e-14 	0 	0 	
0.855 -4.2433e-14 	0 	0 	
0.865 1.81856e-14 	0 	0 	
0.875 -7.27426e-14 	0 	0 	
0.885 1.21237e-14 	0 	0 	
0.895 7.27425e-14 	0 	0 	
0.905 -4.84949e-14 	0 	0 	
0.915 -1.81856e-14 	0 	0 	
0.925 -1.21238e-14 	0 	0 	
0.935 -1.69732e-13 	0 	0 	
0.945 -9.0928e-14 	0 	0 	
0.955 -4.24331e-14 	0 	0 	
0.965 -2.42475e-14 	0 	0 	
0.975 4.2433e-14 	0 	0 	
0.985 6.06188e-14 	0 	0 	
0.995 -2.42476e-14 	0 	0 	
