0.005 0.001 2876.99
0.015 0.00100023 2876.99
0.025 8762.38 8.76273e+06
0.035 0.001 2876.99
0.045 0.001 2876.99
0.055 3762.38 3.76417e+06
0.065 8762.37 8.76273e+06
0.075 0.001 2876.99
0.085 3762.38 3.76417e+06
0.095 5682.12 2.52639e+06
0.105 0.001 2520.93
0.115 0.001 2876.99
0.125 0.001 535.859
0.135 3762.38 3.76283e+06
0.145 3763.84 3.76238e+06
0.155 0.001 2876.99
0.165 0.001 2520.92
0.175 0.00100023 2876.99
0.185 0.001 2876.99
0.195 913.008 2.52537e+06
0.205 10000 1e+07
0.215 3762.38 3.76417e+06
0.225 3762.38 3.76417e+06
0.235 0.001 2876.99
0.245 0.001 2876.99
0.255 8762.38 8.76273e+06
0.265 8762.38 1e+07
0.275 0.00100023 2876.99
0.285 0.001 2520.93
0.295 10000 1e+07
0.305 8762.37 8.76273e+06
0.315 0.001 2520.93
0.325 3762.38 3.76417e+06
0.335 3762.38 3.76381e+06
0.345 0.001 2876.99
0.355 3762.38 3.76417e+06
0.365 0.001 2876.99
0.375 8762.38 8.76273e+06
0.385 3762.38 3.76417e+06
0.395 0.001 2876.99
0.405 3762.38 3.76417e+06
0.415 0.001 2876.99
0.425 0.001 2876.99
0.435 8762.38 8.76273e+06
0.445 0.001 2876.99
0.455 0.001 2876.99
0.465 0.001 2876.99
0.475 0.001 2876.99
0.485 8762.37 1e+07
0.495 0.001 2876.99
0.505 0.001 2876.99
0.515 0.001 2876.99
0.525 0.001 2876.99
0.535 0.001 2876.99
0.545 0.001 2876.99
0.555 0.001 2876.99
0.565 0.001 2876.99
0.575 0.001 2876.99
0.585 0.001 2876.99
0.595 3762.38 3.76417e+06
0.605 0.001 2876.99
0.615 8762.38 8.76273e+06
0.625 3762.38 3.76417e+06
0.635 0.001 2876.99
0.645 0.001 2876.99
0.655 0.00100023 2876.99
0.665 3762.38 3.76417e+06
0.675 0.001 2876.99
0.685 8762.38 8.76273e+06
0.695 0.001 1618.3
0.705 0.00100023 2876.99
0.715 0.001 2876.99
0.725 0.001 2603.24
0.735 4.83214 3.76417e+06
0.745 0.001 2876.99
0.755 3762.38 3.76417e+06
0.765 8762.38 8.76273e+06
0.775 0.001 2876.99
0.785 0.001 2876.99
0.795 0.00100023 2876.99
0.805 8762.38 8.76273e+06
0.815 8762.38 8.76273e+06
0.825 0.001 2876.99
0.835 8762.38 8.76273e+06
0.845 10000 1e+07
0.855 0.001 535.859
0.865 3762.38 3.76373e+06
0.875 0.001 2520.93
0.885 0.001 2876.99
0.895 0.001 2876.99
0.905 10000 1e+07
0.915 0.001 2876.99
0.925 3762.38 3.76417e+06
0.935 0.001 2876.99
0.945 0.001 2876.99
0.955 0.00100023 2876.99
0.965 8762.37 8.76273e+06
0.975 10000 1e+07
0.985 0.00100023 2876.99
0.995 8762.38 2.5269e+06
