0.005 -2.8416e+08 	3.89626e-28 	0 	
0.015 -9.02707e+10 	0 	0 	
0.025 -1.60089e+09 	0 	0 	
0.035 1.22892e+16 	0 	0 	
0.045 3.6619e+06 	0 	0 	
0.055 -8.27015e+07 	0 	0 	
0.065 6.42734e+11 	0 	0 	
0.075 1.65195e+10 	0 	0 	
0.085 1.85189e+07 	0 	0 	
0.095 9.03372e+07 	0 	0 	
0.105 -2.72738e+07 	0 	0 	
0.115 2.77758e+08 	0 	0 	
0.125 -6.76385e+08 	0 	0 	
0.135 -4.4065e+06 	0 	0 	
0.145 23144.4 	-1.09161e-31 	0 	
0.155 -1.36951e+07 	0 	0 	
0.165 2.53239e+08 	0 	0 	
0.175 -6.78733e+08 	-2.82392e-27 	0 	
0.185 7.22757e+10 	0 	0 	
0.195 -968915 	0 	0 	
0.205 -1.51388e+07 	0 	0 	
0.215 -4.08085e+11 	0 	0 	
0.225 -1.51574e+07 	0 	0 	
0.235 -1.65122e+10 	0 	0 	
0.245 7.2525e+08 	0 	0 	
0.255 1.08808e+06 	0 	0 	
0.265 -9.43995e+07 	0 	0 	
0.275 -2.85626e+13 	0 	0 	
0.285 -5.04234e+07 	0 	0 	
0.295 -1.24788e+10 	0 	0 	
0.305 -2.16037e+08 	0 	0 	
0.315 2.47733e+08 	0 	0 	
0.325 5.6676e+11 	0 	0 	
0.335 -3.60622e+07 	0 	0 	
0.345 -4.87636e+09 	0 	0 	
0.355 1.92324e+16 	0 	0 	
0.365 1.33221e+13 	0 	0 	
0.375 -316516 	0 	0 	
0.385 -6.0009e+13 	0 	0 	
0.395 3.76749e+12 	0 	0 	
0.405 -1.7244e+11 	0 	0 	
0.415 -2.2719e+16 	0 	0 	
0.425 -2.9299e+29 	0 	0 	
0.435 -3.96724e+40 	0 	0 	
0.445 -2.05717e+53 	0 	0 	
0.455 -3.4607e+51 	0 	0 	
0.465 -3.45185e+64 	0 	0 	
0.475 -3.09844e+73 	0 	0 	
0.485 -4.65538e+83 	0 	0 	
0.495 -2.324e+88 	0 	0 	
0.505 -1.93312e+90 	0 	0 	
0.515 -1.62653e+99 	0 	0 	
0.525 3.50675e+83 	0 	0 	
0.535 1.71129e+72 	0 	0 	
0.545 1.50941e+64 	0 	0 	
0.555 1.87147e+52 	0 	0 	
0.565 5.47717e+40 	0 	0 	
0.575 7.98546e+29 	0 	0 	
0.585 6.20713e+17 	0 	0 	
0.595 1.96876e+07 	0 	0 	
0.605 1.08763e+09 	0 	0 	
0.615 179540 	0 	0 	
0.625 -5.07551e+07 	0 	0 	
0.635 2.01882e+12 	0 	0 	
0.645 1.03185e+13 	0 	0 	
0.655 -8.82877e+09 	0 	0 	
0.665 1.02937e+12 	0 	0 	
0.675 1.81852e+09 	0 	0 	
0.685 8.9479e+06 	0 	0 	
0.695 2.13644e+11 	0 	0 	
0.705 -1.8563e+08 	0 	0 	
0.715 -7.7498e+07 	0 	0 	
0.725 -1.96719e+07 	0 	0 	
0.735 2509.78 	0 	0 	
0.745 -7.4568e+08 	0 	0 	
0.755 5.45479e+06 	0 	0 	
0.765 -2.65755e+06 	0 	0 	
0.775 -2.27671e+14 	0 	0 	
0.785 -5.90844e+08 	0 	0 	
0.795 -2.98929e+09 	0 	0 	
0.805 4.42744e+08 	0 	0 	
0.815 -4.22387e+07 	0 	0 	
0.825 -5.36474e+16 	0 	0 	
0.835 -1.15232e+13 	0 	0 	
0.845 1.49393e+08 	0 	0 	
0.855 2.72879e+08 	0 	0 	
0.865 1.09052e+08 	0 	0 	
0.875 -3.42266e+11 	0 	0 	
0.885 1.1064e+17 	0 	0 	
0.895 -3.41528e+12 	0 	0 	
0.905 7.83018e+13 	0 	0 	
0.915 1.32514e+10 	0 	0 	
0.925 -1.02371e+11 	0 	0 	
0.935 -4.95572e+09 	0 	0 	
0.945 -6.76663e+08 	0 	0 	
0.955 -2.96732e+07 	0 	0 	
0.965 3.04951e+08 	0 	0 	
0.975 7.7638e+09 	0 	0 	
0.985 -9.53982e+08 	0 	0 	
0.995 -1.00101e+08 	0 	0 	
