0.005 -8.89074e-14 	0 	0 	
0.015 7.27426e-14 	0 	0 	
0.025 -8.08251e-15 	0 	0 	
0.035 2.42475e-14 	0 	0 	
0.045 8.89076e-14 	0 	0 	
0.055 -4.84949e-14 	0 	0 	
0.065 -8.08237e-15 	0 	0 	
0.075 -8.08249e-15 	0 	0 	
0.085 8.89075e-14 	0 	0 	
0.095 5.65775e-14 	0 	0 	
0.105 -5.65774e-14 	0 	0 	
0.115 -7.27425e-14 	0 	0 	
0.125 -1.61649e-14 	0 	0 	
0.135 6.466e-14 	0 	0 	
0.145 1.05073e-13 	0 	0 	
0.155 4.04124e-14 	0 	0 	
0.165 -8.08251e-15 	0 	0 	
0.175 8.08243e-15 	0 	0 	
0.185 -4.04126e-14 	0 	0 	
0.195 1.05072e-13 	0 	0 	
0.205 -7.2742e-14 	0 	0 	
0.215 -2.42475e-14 	0 	0 	
0.225 -8.08249e-15 	0 	0 	
0.235 8.08262e-15 	0 	0 	
0.245 -6.466e-14 	0 	0 	
0.255 4.04125e-14 	0 	0 	
0.265 -1.05072e-13 	0 	0 	
0.275 -1.6165e-14 	0 	0 	
0.285 -7.27425e-14 	0 	0 	
0.295 2.02062e-13 	0 	0 	
0.305 -9.699e-14 	0 	0 	
0.315 -2.42475e-14 	8.97336e-31 	0 	
0.325 -1.6165e-14 	0 	0 	
0.335 -2.42474e-14 	-8.97336e-31 	0 	
0.345 1.05073e-13 	0 	0 	
0.355 8.8907e-14 	-4.48668e-31 	0 	
0.365 8.89075e-14 	1.79467e-30 	0 	
0.375 1.6165e-14 	0 	0 	
0.385 -6.466e-14 	0 	0 	
0.395 4.8495e-14 	0 	0 	
0.405 6.46595e-14 	0 	0 	
0.415 8.08288e-15 	0 	0 	
0.425 -1.13155e-13 	0 	0 	
0.435 -8.08238e-15 	0 	0 	
0.445 -7.27425e-14 	0 	0 	
0.455 6.466e-14 	0 	0 	
0.465 -8.0825e-14 	-8.97336e-31 	0 	
0.475 0.702642 	0 	0 	
0.485 22.2809 	0 	0 	
0.495 99.2004 	0 	0 	
0.505 129.5 	0 	0 	
0.515 94.5307 	0 	0 	
0.525 4.79332 	0 	0 	
0.535 -1.21241e-14 	0 	0 	
0.545 -6.06186e-15 	0 	0 	
0.555 -8.48662e-14 	0 	0 	
0.565 -3.63712e-14 	0 	0 	
0.575 -6.06188e-14 	0 	0 	
0.585 -1.03052e-13 	0 	0 	
0.595 9.69899e-14 	0 	0 	
0.605 6.66806e-14 	0 	0 	
0.615 -3.63713e-14 	0 	0 	
0.625 -1.81856e-14 	0 	0 	
0.635 -7.27425e-14 	0 	0 	
0.645 2.42474e-14 	0 	0 	
0.655 1.09114e-13 	0 	0 	
0.665 1.81855e-14 	0 	0 	
0.675 -1.21237e-14 	0 	0 	
0.685 -9.0928e-14 	0 	0 	
0.695 -1.21237e-14 	0 	0 	
0.705 -3.03093e-14 	0 	0 	
0.715 -6.06185e-15 	0 	0 	
0.725 -8.48663e-14 	0 	0 	
0.735 3.63712e-14 	0 	0 	
0.745 2.42475e-14 	0 	0 	
0.755 -6.06187e-14 	0 	0 	
0.765 -3.63713e-14 	0 	0 	
0.775 -5.45567e-14 	0 	0 	
0.785 -7.27424e-14 	0 	0 	
0.795 6.0615e-15 	0 	0 	
0.805 -6.66807e-14 	0 	0 	
0.815 -4.8495e-14 	0 	0 	
0.825 7.27423e-14 	0 	0 	
0.835 -8.81437e-25 	0 	0 	
0.845 -3.03094e-14 	0 	0 	
0.855 -4.84949e-14 	0 	0 	
0.865 1.09114e-13 	0 	0 	
0.875 -3.03093e-14 	0 	0 	
0.885 -1.21237e-14 	0 	0 	
0.895 7.27425e-14 	0 	0 	
0.905 4.2433e-14 	0 	0 	
0.915 -9.09279e-14 	0 	0 	
0.925 7.27425e-14 	0 	0 	
0.935 4.2433e-14 	0 	0 	
0.945 -2.42476e-14 	0 	0 	
0.955 8.48658e-14 	0 	0 	
0.965 4.84949e-14 	0 	0 	
0.975 2.42474e-14 	0 	0 	
0.985 3.03094e-14 	0 	0 	
0.995 -1.09114e-13 	0 	0 	
