0.005 -3.23301e-14 	0 	0 	
0.015 1.2932e-13 	0 	0 	
0.025 1.05072e-13 	0 	0 	
0.035 4.04124e-14 	0 	0 	
0.045 3.233e-14 	0 	0 	
0.055 -1.6165e-14 	0 	0 	
0.065 -5.65775e-14 	0 	0 	
0.075 -4.04125e-14 	0 	0 	
0.085 -3.233e-14 	0 	0 	
0.095 8.0825e-15 	0 	0 	
0.105 4.04121e-14 	0 	0 	
0.115 8.0825e-14 	0 	0 	
0.125 -2.42475e-14 	0 	0 	
0.135 -4.82269e-20 	0 	0 	
0.145 6.466e-14 	0 	0 	
0.155 7.27426e-14 	0 	0 	
0.165 8.89076e-14 	0 	0 	
0.175 -1.61646e-14 	0 	0 	
0.185 -1.61649e-14 	0 	0 	
0.195 3.233e-14 	0 	0 	
0.205 2.42474e-14 	0 	0 	
0.215 1.37402e-13 	0 	0 	
0.225 -8.08251e-15 	0 	0 	
0.235 4.8495e-14 	0 	0 	
0.245 -1.85897e-13 	0 	0 	
0.255 -1.6165e-14 	0 	0 	
0.265 2.42475e-14 	0 	0 	
0.275 -3.233e-14 	0 	0 	
0.285 2.42475e-14 	0 	0 	
0.295 1.45485e-13 	0 	0 	
0.305 -3.233e-14 	0 	0 	
0.315 2.42475e-14 	1.34601e-30 	0 	
0.325 -4.84946e-14 	0 	0 	
0.335 -8.08249e-14 	-1.34601e-30 	0 	
0.345 -4.8495e-14 	0 	0 	
0.355 1.61654e-14 	-6.73003e-31 	0 	
0.365 -4.8495e-14 	2.69201e-30 	0 	
0.375 -4.04125e-14 	0 	0 	
0.385 4.04125e-14 	0 	0 	
0.395 -8.08247e-14 	0 	0 	
0.405 4.04124e-14 	0 	0 	
0.415 -5.65775e-14 	0 	0 	
0.425 -1.13155e-13 	0 	0 	
0.435 -2.42475e-14 	0 	0 	
0.445 -5.65775e-14 	0 	0 	
0.455 0.000205159 	0 	0 	
0.465 0.456602 	-1.34733e-30 	0 	
0.475 11.2619 	0 	0 	
0.485 56.1173 	0 	0 	
0.495 119.825 	-1.65592e-31 	0 	
0.505 130.161 	-9.05339e-32 	0 	
0.515 126.703 	0 	0 	
0.525 79.6635 	0 	0 	
0.535 3.98596 	0 	0 	
0.545 0.00091028 	0 	0 	
0.555 -2.42475e-14 	0 	0 	
0.565 -2.42475e-14 	0 	0 	
0.575 -4.8495e-14 	0 	0 	
0.585 -9.09281e-14 	0 	0 	
0.595 2.42475e-14 	0 	0 	
0.605 -4.24331e-14 	0 	0 	
0.615 3.03093e-14 	0 	0 	
0.625 7.88043e-14 	0 	0 	
0.635 -3.63713e-14 	0 	0 	
0.645 -5.45569e-14 	0 	0 	
0.655 4.8495e-14 	0 	0 	
0.665 4.24332e-14 	0 	0 	
0.675 -7.27424e-14 	0 	0 	
0.685 7.88044e-14 	0 	0 	
0.695 -1.39423e-13 	0 	0 	
0.705 1.21237e-14 	0 	0 	
0.715 -4.40721e-25 	0 	0 	
0.725 -2.42475e-14 	0 	0 	
0.735 6.06187e-14 	0 	0 	
0.745 -2.42475e-14 	0 	0 	
0.755 6.06187e-14 	0 	0 	
0.765 4.84949e-14 	0 	0 	
0.775 -4.8495e-14 	0 	0 	
0.785 -1.81857e-14 	0 	0 	
0.795 -2.42281e-29 	0 	0 	
0.805 9.699e-14 	0 	0 	
0.815 3.63713e-14 	0 	0 	
0.825 -4.40732e-25 	0 	0 	
0.835 -1.81855e-14 	0 	0 	
0.845 1.09113e-13 	0 	0 	
0.855 3.03094e-14 	0 	0 	
0.865 7.27425e-14 	0 	0 	
0.875 4.2433e-14 	0 	0 	
0.885 5.45568e-14 	0 	0 	
0.895 9.699e-14 	0 	0 	
0.905 -6.06186e-15 	0 	0 	
0.915 -3.03094e-14 	0 	0 	
0.925 1.21237e-14 	0 	0 	
0.935 -1.09114e-13 	0 	0 	
0.945 3.03094e-14 	0 	0 	
0.955 6.06182e-15 	0 	0 	
0.965 -1.09114e-13 	0 	0 	
0.975 4.2433e-14 	0 	0 	
0.985 -7.27424e-14 	0 	0 	
0.995 1.81857e-14 	0 	0 	
