0.005 -2.6322e-24 	0 	0 	
0.015 3.52689e-14 	0 	0 	
0.025 1.05807e-13 	0 	0 	
0.035 3.52689e-14 	0 	0 	
0.045 -1.05807e-13 	0 	0 	
0.055 7.0538e-14 	0 	0 	
0.065 -1.05807e-13 	0 	0 	
0.075 7.05381e-14 	0 	0 	
0.085 1.05807e-13 	0 	0 	
0.095 -3.52691e-14 	0 	0 	
0.105 1.41076e-13 	0 	0 	
0.115 1.41076e-13 	0 	0 	
0.125 -1.3166e-24 	-1.7131e-30 	0 	
0.135 -3.5269e-14 	0 	0 	
0.145 -7.0538e-14 	0 	0 	
0.155 -3.5269e-14 	0 	0 	
0.165 3.5269e-14 	0 	0 	
0.175 -3.5269e-14 	-3.67093e-30 	0 	
0.185 -1.41076e-13 	-3.42619e-30 	0 	
0.195 -3.5269e-14 	0 	0 	
0.205 -1.05807e-13 	0 	0 	
0.215 -7.0538e-14 	0 	0 	
0.225 -2.11614e-13 	0 	0 	
0.235 -3.5269e-14 	0 	0 	
0.245 1.05807e-13 	0 	0 	
0.255 -7.0538e-14 	-4.16038e-30 	0 	
0.265 7.0538e-14 	-3.91565e-30 	0 	
0.275 -1.76345e-13 	0 	0 	
0.285 -1.41076e-13 	0 	0 	
0.295 1.41076e-13 	0 	0 	
0.305 -3.52691e-14 	0 	0 	
0.315 -3.93992e-24 	0 	0 	
0.325 -3.5269e-14 	0 	0 	
0.335 1.41076e-13 	0 	0 	
0.345 -3.5269e-14 	0 	0 	
0.355 -3.52689e-14 	-3.67093e-30 	0 	
0.365 1.41076e-13 	0 	0 	
0.375 1.05807e-13 	0 	0 	
0.385 -1.41076e-13 	0 	0 	
0.395 3.5269e-14 	0 	0 	
0.405 3.93641e-24 	0 	0 	
0.415 2.55737e-06 	3.91565e-30 	0 	
0.425 0.0039944 	3.67095e-30 	0 	
0.435 0.278494 	-1.83659e-30 	0 	
0.445 3.8813 	3.45974e-30 	0 	
0.455 18.9419 	5.15461e-31 	0 	
0.465 49.3652 	1.12873e-30 	0 	
0.475 89.4656 	0 	0 	
0.485 122.767 	2.6898e-31 	0 	
0.495 130.177 	3.69764e-31 	0 	
0.505 130.177 	-1.85393e-31 	0 	
0.515 130.129 	0 	0 	
0.525 130.071 	0 	0 	
0.535 130.149 	0 	0 	
0.545 125.102 	0 	0 	
0.555 95.3214 	0 	0 	
0.565 5.71669 	0 	0 	
0.575 0.0423411 	0 	0 	
0.585 1.61115e-05 	0 	0 	
0.595 9.81456e-25 	0 	0 	
0.605 -2.6452e-14 	0 	0 	
0.615 -1.58711e-13 	0 	0 	
0.625 2.64517e-14 	0 	0 	
0.635 2.52436e-29 	0 	0 	
0.645 5.29035e-14 	0 	0 	
0.655 2.64517e-14 	0 	0 	
0.665 7.93555e-14 	0 	0 	
0.675 -2.64517e-14 	0 	0 	
0.685 5.29035e-14 	0 	0 	
0.695 2.6452e-14 	0 	0 	
0.705 2.6452e-14 	0 	0 	
0.715 -1.85162e-13 	0 	0 	
0.725 5.29035e-14 	0 	0 	
0.735 1.05807e-13 	0 	0 	
0.745 1.05807e-13 	0 	0 	
0.755 -7.93555e-14 	0 	0 	
0.765 -5.29035e-14 	0 	0 	
0.775 -4.89848e-24 	0 	0 	
0.785 2.93908e-24 	0 	0 	
0.795 2.64517e-14 	0 	0 	
0.805 1.32259e-13 	0 	0 	
0.815 1.05807e-13 	0 	0 	
0.825 1.05808e-13 	0 	0 	
0.835 5.29037e-14 	0 	0 	
0.845 2.6452e-14 	0 	0 	
0.855 1.05807e-13 	0 	0 	
0.865 -5.29036e-14 	0 	0 	
0.875 5.29037e-14 	0 	0 	
0.885 5.29035e-14 	0 	0 	
0.895 -5.29035e-14 	0 	0 	
0.905 2.6452e-14 	0 	0 	
0.915 -1.32259e-13 	0 	0 	
0.925 2.64518e-14 	0 	0 	
0.935 -1.32259e-13 	0 	0 	
0.945 -1.32258e-13 	0 	0 	
0.955 -5.29035e-14 	0 	0 	
0.965 -2.64518e-14 	0 	0 	
0.975 -1.05807e-13 	0 	0 	
0.985 -2.6452e-14 	0 	0 	
0.995 -7.93555e-14 	0 	0 	
