0.005 5.87817e-15 	0 	0 	
0.015 3.5269e-14 	0 	0 	
0.025 8.22943e-14 	0 	0 	
0.035 9.11115e-14 	0 	0 	
0.045 3.8208e-14 	0 	0 	
0.055 -1.46954e-14 	0 	0 	
0.065 -3.82081e-14 	0 	0 	
0.075 -6.17208e-14 	0 	0 	
0.085 -5.29036e-14 	0 	0 	
0.095 8.81727e-15 	0 	0 	
0.105 5.58426e-14 	0 	0 	
0.115 5.58426e-14 	0 	0 	
0.125 2.35127e-14 	0 	0 	
0.135 -3.8208e-14 	0 	0 	
0.145 -1.02868e-13 	-3.26305e-31 	0 	
0.155 -1.2932e-13 	0 	0 	
0.165 -1.14624e-13 	0 	0 	
0.175 -8.22943e-14 	0 	0 	
0.185 -3.52691e-14 	0 	0 	
0.195 2.93908e-14 	0 	0 	
0.205 6.46599e-14 	0 	0 	
0.215 4.99645e-14 	0 	0 	
0.225 4.70253e-14 	0 	0 	
0.235 5.29035e-14 	6.52609e-31 	0 	
0.245 2.93908e-14 	0 	0 	
0.255 5.87815e-15 	0 	0 	
0.265 -2.93907e-15 	0 	0 	
0.275 -2.93908e-15 	0 	0 	
0.285 0 	0 	0 	
0.295 5.87817e-15 	0 	0 	
0.305 2.05736e-14 	0 	0 	
0.315 3.82081e-14 	0 	0 	
0.325 4.70254e-14 	0 	0 	
0.335 3.5269e-14 	0 	0 	
0.345 -2.93912e-15 	0 	0 	
0.355 -4.40863e-14 	0 	0 	
0.365 -5.29036e-14 	0 	0 	
0.375 -4.40863e-14 	0 	0 	
0.385 -3.82081e-14 	0 	0 	
0.395 -3.5269e-14 	0 	0 	
0.405 -1.76345e-14 	0 	0 	
0.415 2.64518e-14 	0 	0 	
0.425 4.40863e-14 	0 	0 	
0.435 1.76345e-14 	0 	0 	
0.445 1.65869 	0 	0 	
0.455 11.9509 	0 	0 	
0.465 36.7688 	0 	0 	
0.475 70.9275 	0 	0 	
0.485 101.753 	0 	0 	
0.495 121.476 	0 	0 	
0.505 131.879 	0 	0 	
0.515 135.094 	0 	0 	
0.525 130.78 	0 	0 	
0.535 112.877 	0 	0 	
0.545 73.0879 	0 	0 	
0.555 27.9406 	0 	0 	
0.565 4.3396 	0 	0 	
0.575 -8.81727e-15 	0 	0 	
0.585 6.61295e-15 	0 	0 	
0.595 6.61295e-15 	0 	0 	
0.605 -1.98388e-14 	0 	0 	
0.615 -5.73122e-14 	0 	0 	
0.625 -7.27424e-14 	0 	0 	
0.635 -4.40863e-14 	0 	0 	
0.645 6.61292e-15 	0 	0 	
0.655 1.10216e-14 	0 	0 	
0.665 -3.30647e-14 	0 	0 	
0.675 -3.96777e-14 	0 	0 	
0.685 8.81727e-15 	0 	0 	
0.695 4.62906e-14 	0 	0 	
0.705 6.39251e-14 	0 	0 	
0.715 7.27424e-14 	0 	0 	
0.725 4.62906e-14 	0 	0 	
0.735 1.10216e-14 	0 	0 	
0.745 0 	0 	0 	
0.755 -4.40862e-15 	0 	0 	
0.765 -2.20431e-14 	0 	0 	
0.775 -3.5269e-14 	0 	0 	
0.785 -2.64518e-14 	0 	0 	
0.795 -2.42474e-14 	0 	0 	
0.805 -2.20432e-14 	0 	0 	
0.815 -4.40864e-15 	-4.89455e-31 	0 	
0.825 6.61294e-15 	0 	0 	
0.835 2.64518e-14 	0 	0 	
0.845 3.74734e-14 	0 	0 	
0.855 6.61295e-15 	0 	0 	
0.865 -1.76345e-14 	0 	0 	
0.875 6.61295e-15 	0 	0 	
0.885 3.74733e-14 	0 	0 	
0.895 2.86561e-14 	0 	0 	
0.905 2.20433e-15 	0 	0 	
0.915 -1.98388e-14 	0 	0 	
0.925 -2.64518e-14 	0 	0 	
0.935 -1.32259e-14 	0 	0 	
0.945 8.81727e-15 	0 	0 	
0.955 2.86561e-14 	0 	0 	
0.965 2.20432e-14 	0 	0 	
0.975 4.40863e-15 	0 	0 	
0.985 0 	0 	0 	
0.995 0 	0 	0 	
