0.005 -4.69078e-14 	0 	0 	
0.015 1.10568e-13 	0 	0 	
0.025 1.75904e-13 	0 	0 	
0.035 5.52844e-14 	0 	0 	
0.045 8.04133e-14 	0 	0 	
0.055 2.34539e-14 	0 	0 	
0.065 2.21137e-13 	0 	0 	
0.075 -4.18817e-14 	0 	0 	
0.085 -6.19853e-14 	0 	0 	
0.095 2.34543e-14 	0 	0 	
0.105 2.01034e-14 	0 	0 	
0.115 1.84281e-14 	0 	0 	
0.125 9.21406e-14 	0 	0 	
0.135 -9.21406e-14 	0 	0 	
0.145 -1.57476e-13 	0 	0 	
0.155 5.36091e-14 	0 	0 	
0.165 5.69593e-14 	0 	0 	
0.175 -2.5129e-14 	0 	0 	
0.185 5.86348e-14 	0 	0 	
0.195 1.27321e-13 	0 	0 	
0.205 -4.35571e-14 	0 	0 	
0.215 -2.68046e-14 	0 	0 	
0.225 -1.67532e-14 	0 	0 	
0.235 6.19852e-14 	0 	0 	
0.245 1.34024e-14 	0 	0 	
0.255 1.08893e-13 	0 	0 	
0.265 1.30672e-13 	0 	0 	
0.275 2.51292e-14 	0 	0 	
0.285 -1.8428e-14 	0 	0 	
0.295 -1.42399e-13 	0 	0 	
0.305 -1.45749e-13 	0 	0 	
0.315 -4.52327e-14 	0 	0 	
0.325 -7.53875e-14 	0 	0 	
0.335 -2.76421e-13 	0 	0 	
0.345 -9.88418e-14 	0 	0 	
0.355 -2.34539e-14 	0 	0 	
0.365 -9.88413e-14 	0 	0 	
0.375 -1.08893e-13 	0 	0 	
0.385 2.5129e-14 	0 	0 	
0.395 6.30517e-07 	0 	0 	
0.405 0.000368113 	0 	0 	
0.415 0.0301987 	0 	0 	
0.425 0.632941 	0 	0 	
0.435 4.90746 	0 	0 	
0.445 18.5451 	0 	0 	
0.455 43.5285 	0 	0 	
0.465 76.5115 	1.19001e-30 	0 	
0.475 109.713 	0 	0 	
0.485 128.129 	0 	0 	
0.495 130.212 	0 	0 	
0.505 130.175 	0 	0 	
0.515 130.139 	0 	0 	
0.525 130.109 	0 	0 	
0.535 130.068 	0 	0 	
0.545 129.683 	0 	0 	
0.555 124.608 	0 	0 	
0.565 92.6977 	0 	0 	
0.575 18.7885 	0 	0 	
0.585 0.509962 	0 	0 	
0.595 0.00364174 	0 	0 	
0.605 4.26841e-06 	0 	0 	
0.615 3.26682e-14 	0 	0 	
0.625 7.49931e-20 	0 	0 	
0.635 -5.02585e-14 	0 	0 	
0.645 -5.77973e-14 	0 	0 	
0.655 5.02583e-14 	0 	0 	
0.665 -1.25646e-15 	0 	0 	
0.675 -1.13081e-13 	0 	0 	
0.685 2.51292e-15 	0 	0 	
0.695 -7.79004e-14 	0 	0 	
0.705 -4.9002e-14 	0 	0 	
0.715 2.01036e-14 	0 	0 	
0.725 2.50034e-20 	0 	0 	
0.735 1.88467e-14 	0 	0 	
0.745 4.14633e-14 	0 	0 	
0.755 -5.65409e-14 	0 	0 	
0.765 1.25645e-15 	0 	0 	
0.775 -1.88469e-14 	0 	0 	
0.785 5.52842e-14 	0 	0 	
0.795 3.89504e-14 	0 	0 	
0.805 -3.64375e-14 	0 	0 	
0.815 -7.79005e-14 	0 	0 	
0.825 6.28232e-15 	0 	0 	
0.835 -1.8093e-13 	0 	0 	
0.845 5.02585e-14 	0 	0 	
0.855 8.92089e-14 	0 	0 	
0.865 7.16181e-14 	0 	0 	
0.875 3.14116e-14 	0 	0 	
0.885 9.2978e-14 	0 	0 	
0.895 -1.13082e-14 	0 	0 	
0.905 2.13598e-14 	0 	0 	
0.915 3.64373e-14 	0 	0 	
0.925 -8.79524e-14 	0 	0 	
0.935 -1.62083e-13 	0 	0 	
0.945 -3.39245e-14 	0 	0 	
0.955 2.26164e-14 	0 	0 	
0.965 -9.42344e-14 	0 	0 	
0.975 1.88469e-14 	0 	0 	
0.985 2.76422e-14 	0 	0 	
0.995 -1.14338e-13 	0 	0 	
