0.005 8.81725e-14 	0 	0 	
0.015 4.40862e-14 	0 	0 	
0.025 1.46953e-14 	0 	0 	
0.035 -2.93908e-14 	0 	0 	
0.045 -2.9391e-14 	0 	0 	
0.055 -2.93908e-14 	0 	0 	
0.065 -1.46953e-14 	0 	0 	
0.075 -2.9391e-14 	0 	0 	
0.085 -4.40861e-14 	0 	0 	
0.095 -2.93908e-14 	0 	0 	
0.105 1.46958e-14 	0 	0 	
0.115 -1.46958e-14 	0 	0 	
0.125 7.34771e-14 	0 	0 	
0.135 2.05736e-13 	0 	0 	
0.145 2.20432e-13 	0 	0 	
0.155 1.6165e-13 	0 	0 	
0.165 1.17563e-13 	0 	0 	
0.175 2.49822e-13 	0 	0 	
0.185 2.79213e-13 	0 	0 	
0.195 -2.93909e-14 	0 	0 	
0.205 -5.47947e-24 	0 	0 	
0.215 -2.93908e-14 	0 	0 	
0.225 -5.87818e-14 	0 	0 	
0.235 -1.91041e-13 	0 	0 	
0.245 -2.20431e-13 	0 	0 	
0.255 -1.6165e-13 	0 	0 	
0.265 -2.05736e-13 	0 	0 	
0.275 -1.6165e-13 	0 	0 	
0.285 -8.81725e-14 	0 	0 	
0.295 -5.87816e-14 	0 	0 	
0.305 4.40862e-14 	0 	0 	
0.315 1.17563e-12 	0 	0 	
0.325 6.35211e-10 	0 	0 	
0.335 1.19814e-07 	0 	0 	
0.345 9.66987e-06 	0 	0 	
0.355 0.000384727 	0 	0 	
0.365 0.00823372 	0 	0 	
0.375 0.100314 	0 	0 	
0.385 0.725825 	0 	0 	
0.395 3.27305 	0 	0 	
0.405 9.89253 	0 	0 	
0.415 21.9917 	0 	0 	
0.425 39.3106 	0 	0 	
0.435 60.4651 	0 	0 	
0.445 83.5583 	0 	0 	
0.455 105.844 	0 	0 	
0.465 122.572 	0 	0 	
0.475 129.386 	0 	0 	
0.485 130.203 	0 	0 	
0.495 130.186 	0 	0 	
0.505 130.16 	0 	0 	
0.515 130.14 	0 	0 	
0.525 130.123 	0 	0 	
0.535 130.108 	0 	0 	
0.545 130.093 	0 	0 	
0.555 130.078 	0 	0 	
0.565 130.058 	0 	0 	
0.575 129.967 	0 	0 	
0.585 129.218 	0 	0 	
0.595 124.122 	0 	0 	
0.605 99.6038 	0 	0 	
0.615 38.5634 	0 	0 	
0.625 3.88676 	0 	0 	
0.635 0.185663 	0 	0 	
0.645 0.00571766 	0 	0 	
0.655 0.000105549 	0 	0 	
0.665 1.03114e-06 	0 	0 	
0.675 4.50969e-09 	0 	0 	
0.685 6.78929e-12 	0 	0 	
0.695 -1.36069e-24 	0 	0 	
0.705 3.30647e-14 	0 	0 	
0.715 -4.40862e-14 	0 	0 	
0.725 -1.21237e-13 	0 	0 	
0.735 -7.71511e-14 	0 	0 	
0.745 -1.32259e-13 	0 	0 	
0.755 -7.71509e-14 	0 	0 	
0.765 -1.32259e-13 	0 	0 	
0.775 -1.54302e-13 	0 	0 	
0.785 -1.21237e-13 	0 	0 	
0.795 -1.21237e-13 	0 	0 	
0.805 -3.30647e-14 	0 	0 	
0.815 3.30647e-14 	0 	0 	
0.825 6.61294e-14 	0 	0 	
0.835 1.10216e-14 	0 	0 	
0.845 1.10215e-14 	0 	0 	
0.855 6.61295e-14 	0 	0 	
0.865 9.9194e-14 	0 	0 	
0.875 7.71509e-14 	0 	0 	
0.885 5.51078e-14 	0 	0 	
0.895 -4.40861e-14 	0 	0 	
0.905 -4.99973e-20 	0 	0 	
0.915 -2.20432e-14 	0 	0 	
0.925 1.10216e-14 	0 	0 	
0.935 -4.40863e-14 	0 	0 	
0.945 8.81728e-14 	0 	0 	
0.955 9.91939e-14 	0 	0 	
0.965 9.91941e-14 	0 	0 	
0.975 6.61295e-14 	0 	0 	
0.985 -1.10213e-14 	0 	0 	
0.995 2.20432e-14 	0 	0 	
