0.005 0 	0 	0 	
0.015 2.35127e-14 	0 	0 	
0.025 7.34771e-14 	0 	0 	
0.035 8.52335e-14 	0 	0 	
0.045 4.11472e-14 	0 	0 	
0.055 -2.93907e-15 	0 	0 	
0.065 -3.5269e-14 	0 	0 	
0.075 -7.05381e-14 	0 	0 	
0.085 -6.7599e-14 	0 	0 	
0.095 -5.85004e-25 	0 	0 	
0.105 6.17208e-14 	0 	0 	
0.115 6.46599e-14 	0 	0 	
0.125 3.52691e-14 	0 	0 	
0.135 -1.76345e-14 	0 	0 	
0.145 -8.52335e-14 	-1.63152e-30 	0 	
0.155 -1.17563e-13 	0 	0 	
0.165 -1.05807e-13 	0 	0 	
0.175 -8.52335e-14 	0 	0 	
0.185 -4.70254e-14 	0 	0 	
0.195 2.05736e-14 	0 	0 	
0.205 6.46599e-14 	0 	0 	
0.215 5.29036e-14 	0 	0 	
0.225 4.11472e-14 	0 	0 	
0.235 4.70254e-14 	3.26303e-30 	0 	
0.245 2.35127e-14 	0 	0 	
0.255 -2.9391e-15 	0 	0 	
0.265 -2.50001e-20 	0 	0 	
0.275 2.93908e-15 	0 	0 	
0.285 0 	0 	0 	
0.295 0 	0 	0 	
0.305 0 	0 	0 	
0.315 -2.93907e-15 	0 	0 	
0.325 2.9391e-15 	0 	0 	
0.335 8.81725e-15 	0 	0 	
0.345 -2.9391e-15 	0 	0 	
0.355 -5.87818e-15 	0 	0 	
0.365 0 	0 	0 	
0.375 -8.81725e-15 	0 	0 	
0.385 -2.64517e-14 	0 	0 	
0.395 -3.23299e-14 	0 	0 	
0.405 -1.17564e-14 	0 	0 	
0.415 2.64517e-14 	0 	0 	
0.425 3.82081e-14 	0 	0 	
0.435 1.46954e-14 	0 	0 	
0.445 0.272277 	0 	0 	
0.455 5.89235 	0 	0 	
0.465 26.0966 	0 	0 	
0.475 61.413 	0 	0 	
0.485 98.6327 	0 	0 	
0.495 123.683 	0 	0 	
0.505 132.292 	0 	0 	
0.515 131.308 	0 	0 	
0.525 125.227 	0 	0 	
0.535 101.124 	0 	0 	
0.545 55.6597 	0 	0 	
0.555 16.0421 	0 	0 	
0.565 1.28349 	0 	0 	
0.575 -8.81727e-15 	0 	0 	
0.585 6.61295e-15 	0 	0 	
0.595 6.61295e-15 	0 	0 	
0.605 -1.76345e-14 	0 	0 	
0.615 -4.84949e-14 	0 	0 	
0.625 -4.8495e-14 	0 	0 	
0.635 -2.20432e-14 	0 	0 	
0.645 6.61295e-15 	0 	0 	
0.655 1.10216e-14 	0 	0 	
0.665 -3.08604e-14 	0 	0 	
0.675 -5.29035e-14 	0 	0 	
0.685 -1.10216e-14 	0 	0 	
0.695 4.1882e-14 	0 	0 	
0.705 5.95165e-14 	0 	0 	
0.715 4.84949e-14 	0 	0 	
0.725 3.5269e-14 	0 	0 	
0.735 2.20432e-14 	0 	0 	
0.745 6.61295e-15 	0 	0 	
0.755 0 	0 	0 	
0.765 0 	0 	0 	
0.775 -4.40862e-15 	0 	0 	
0.785 -2.20431e-14 	0 	0 	
0.795 -2.64518e-14 	0 	0 	
0.805 2.2043e-15 	0 	0 	
0.815 2.42475e-14 	-2.44729e-30 	0 	
0.825 1.98389e-14 	0 	0 	
0.835 6.61295e-15 	0 	0 	
0.845 0 	0 	0 	
0.855 0 	0 	0 	
0.865 -8.81725e-15 	0 	0 	
0.875 -1.10216e-14 	0 	0 	
0.885 6.61296e-15 	0 	0 	
0.895 1.10216e-14 	0 	0 	
0.905 -4.40863e-15 	0 	0 	
0.915 -3.30647e-14 	0 	0 	
0.925 -4.1882e-14 	0 	0 	
0.935 4.40862e-15 	0 	0 	
0.945 4.1882e-14 	0 	0 	
0.955 2.86561e-14 	0 	0 	
0.965 6.61295e-15 	0 	0 	
0.975 0 	0 	0 	
0.985 0 	0 	0 	
0.995 0 	0 	0 	
