0.005 1.17047e-26 	0 	0 	
0.015 2.42771e-14 	0 	0 	
0.025 -4.33514e-14 	0 	0 	
0.035 2.42769e-14 	0 	0 	
0.045 2.60109e-14 	0 	0 	
0.055 -5.7224e-14 	0 	0 	
0.065 5.3756e-14 	0 	0 	
0.075 7.80328e-14 	0 	0 	
0.085 -4.50856e-14 	1.44389e-29 	0 	
0.095 6.06922e-14 	0 	0 	
0.105 1.05778e-13 	0 	0 	
0.115 1.97683e-13 	-7.46012e-30 	0 	
0.125 -1.04044e-13 	7.46012e-30 	0 	
0.135 9.19052e-14 	0 	0 	
0.145 1.38725e-13 	0 	0 	
0.155 6.58944e-14 	0 	0 	
0.165 6.93623e-14 	0 	0 	
0.175 3.46814e-14 	0 	0 	
0.185 6.06919e-14 	0 	0 	
0.195 1.73405e-15 	0 	0 	
0.205 -3.46812e-15 	0 	0 	
0.215 -1.23118e-13 	0 	0 	
0.225 9.53736e-14 	0 	0 	
0.235 7.10963e-14 	0 	0 	
0.245 6.41602e-14 	0 	0 	
0.255 5.87629e-25 	0 	0 	
0.265 6.76285e-14 	0 	0 	
0.275 3.46812e-14 	0 	0 	
0.285 -8.32347e-14 	0 	0 	
0.295 1.73407e-15 	0 	0 	
0.305 -2.94791e-14 	0 	0 	
0.315 6.93625e-14 	0 	0 	
0.325 -1.04044e-13 	0 	0 	
0.335 1.87551e-10 	0 	0 	
0.345 1.63966e-07 	0 	0 	
0.355 2.79321e-05 	0 	0 	
0.365 0.00156968 	0 	0 	
0.375 0.0369356 	0 	0 	
0.385 0.415957 	0 	0 	
0.395 2.47835 	0 	0 	
0.405 8.77146 	0 	0 	
0.415 21.0926 	0 	0 	
0.425 39.0657 	0 	0 	
0.435 61.0145 	0 	0 	
0.445 84.8428 	0 	0 	
0.455 107.6 	0 	0 	
0.465 124.002 	0 	0 	
0.475 129.743 	0 	0 	
0.485 130.2 	0 	0 	
0.495 130.172 	0 	0 	
0.505 130.146 	0 	0 	
0.515 130.124 	0 	0 	
0.525 130.096 	0 	0 	
0.535 130.054 	0 	0 	
0.545 129.982 	0 	0 	
0.555 129.866 	0 	0 	
0.565 129.747 	0 	0 	
0.575 129.665 	0 	0 	
0.585 -452.596 	0 	0 	
0.595 1059.45 	0 	0 	
0.605 -9220.81 	0 	0 	
0.615 58.7308 	0 	0 	
0.625 1.73454 	0 	0 	
0.635 0.0367335 	0 	0 	
0.645 0.000400395 	0 	0 	
0.655 1.64094e-06 	0 	0 	
0.665 1.40595e-09 	0 	0 	
0.675 -5.85247e-14 	0 	0 	
0.685 7.02294e-14 	0 	0 	
0.695 2.60108e-15 	0 	0 	
0.705 4.16176e-14 	0 	0 	
0.715 4.0317e-14 	0 	0 	
0.725 -1.30056e-14 	0 	0 	
0.735 1.69068e-14 	0 	0 	
0.745 -9.10371e-15 	0 	0 	
0.755 -3.12134e-14 	0 	0 	
0.765 -1.69072e-14 	0 	0 	
0.775 3.90164e-14 	0 	0 	
0.785 -2.60105e-14 	0 	0 	
0.795 5.20218e-15 	0 	0 	
0.805 -2.6011e-14 	0 	0 	
0.815 1.28754e-13 	0 	0 	
0.825 7.15302e-14 	0 	0 	
0.835 1.02743e-13 	0 	0 	
0.845 6.11256e-14 	0 	0 	
0.855 2.65674e-29 	0 	0 	
0.865 1.82076e-14 	0 	0 	
0.875 -6.5025e-15 	0 	0 	
0.885 1.24852e-13 	0 	0 	
0.895 1.14448e-13 	0 	0 	
0.905 2.341e-14 	0 	0 	
0.915 -1.70371e-13 	0 	0 	
0.925 -8.45353e-14 	0 	0 	
0.935 2.99127e-14 	0 	0 	
0.945 5.9825e-14 	0 	0 	
0.955 -2.60082e-15 	0 	0 	
0.965 -5.2022e-14 	0 	0 	
0.975 5.85245e-14 	0 	0 	
0.985 2.86117e-14 	0 	0 	
0.995 -5.33225e-14 	0 	0 	
