0.005 5.78314e-14 	0 	0 	
0.015 1.11685e-13 	0 	0 	
0.025 1.38137e-13 	0 	0 	
0.035 1.41076e-13 	0 	0 	
0.045 1.32259e-13 	0 	0 	
0.055 8.81725e-14 	0 	0 	
0.065 2.93908e-14 	0 	0 	
0.075 -8.81727e-15 	0 	0 	
0.085 -5.29035e-14 	0 	0 	
0.095 -1.08746e-13 	0 	0 	
0.105 -1.6165e-13 	0 	0 	
0.115 -1.85162e-13 	0 	0 	
0.125 -1.82223e-13 	0 	0 	
0.135 -1.99858e-13 	0 	0 	
0.145 -2.29249e-13 	-1.79468e-30 	0 	
0.155 -2.43944e-13 	1.63152e-30 	0 	
0.165 -2.55701e-13 	0 	0 	
0.175 -2.52762e-13 	0 	0 	
0.185 -1.85163e-13 	0 	0 	
0.195 -6.75991e-14 	0 	0 	
0.205 2.05736e-14 	0 	0 	
0.215 5.29035e-14 	0 	0 	
0.225 8.52334e-14 	1.63152e-31 	0 	
0.235 1.11685e-13 	1.10943e-29 	0 	
0.245 9.69898e-14 	6.52609e-31 	0 	
0.255 9.11115e-14 	0 	0 	
0.265 9.40505e-14 	0 	0 	
0.275 8.22943e-14 	0 	0 	
0.285 9.11116e-14 	0 	0 	
0.295 1.14624e-13 	0 	0 	
0.305 1.17563e-13 	0 	0 	
0.315 9.69899e-14 	0 	0 	
0.325 5.58427e-14 	0 	0 	
0.335 2.50004e-20 	0 	0 	
0.345 -5.87818e-14 	0 	0 	
0.355 0.32686 	0 	0 	
0.365 3.47219 	0 	0 	
0.375 12.6342 	0 	0 	
0.385 27.182 	0 	0 	
0.395 44.2726 	0 	0 	
0.405 62.2013 	0 	0 	
0.415 79.9844 	0 	0 	
0.425 96.5802 	0 	0 	
0.435 110.718 	0 	0 	
0.445 121.163 	0 	0 	
0.455 127.082 	0 	0 	
0.465 129.278 	0 	0 	
0.475 129.997 	0 	0 	
0.485 130.35 	0 	0 	
0.495 130.33 	0 	0 	
0.505 130.088 	0 	0 	
0.515 129.872 	0 	0 	
0.525 129.881 	0 	0 	
0.535 130.164 	0 	0 	
0.545 130.536 	0 	0 	
0.555 130.712 	0 	0 	
0.565 130.589 	0 	0 	
0.575 130.197 	-2.68647e-30 	0 	
0.585 129.724 	-1.86356e-30 	0 	
0.595 129.481 	0 	0 	
0.605 129.538 	0 	0 	
0.615 129.606 	0 	0 	
0.625 129.168 	0 	0 	
0.635 125.959 	0 	0 	
0.645 110.752 	0 	0 	
0.655 73.8941 	0 	0 	
0.665 29.853 	0 	0 	
0.675 5.12678 	0 	0 	
0.685 2.86561e-14 	0 	0 	
0.695 5.29035e-14 	0 	0 	
0.705 3.08604e-14 	0 	0 	
0.715 8.81725e-15 	0 	0 	
0.725 2.64518e-14 	0 	0 	
0.735 5.95165e-14 	0 	0 	
0.745 6.61294e-14 	0 	0 	
0.755 4.40863e-14 	0 	0 	
0.765 3.08604e-14 	0 	0 	
0.775 3.74733e-14 	0 	0 	
0.785 3.96777e-14 	0 	0 	
0.795 2.42475e-14 	0 	0 	
0.805 1.54302e-14 	0 	0 	
0.815 1.76345e-14 	-8.81022e-30 	0 	
0.825 1.10216e-14 	0 	0 	
0.835 -2.20431e-15 	0 	0 	
0.845 -1.76345e-14 	0 	0 	
0.855 -3.08604e-14 	0 	0 	
0.865 -3.5269e-14 	0 	0 	
0.875 -5.29035e-14 	0 	0 	
0.885 -7.71509e-14 	0 	0 	
0.895 -7.05381e-14 	0 	0 	
0.905 -3.30648e-14 	0 	0 	
0.915 -6.61298e-15 	0 	0 	
0.925 -1.76345e-14 	0 	0 	
0.935 -8.81725e-15 	0 	0 	
0.945 4.62905e-14 	0 	0 	
0.955 1.01398e-13 	0 	0 	
0.965 1.25646e-13 	0 	0 	
0.975 1.19033e-13 	0 	0 	
0.985 9.91942e-14 	0 	0 	
0.995 6.7281e-14 	0 	0 	
