0.005 4.55778e-14 	0 	0 	
0.015 8.52334e-14 	0 	0 	
0.025 1.02868e-13 	0 	0 	
0.035 9.11115e-14 	0 	0 	
0.045 3.52689e-14 	0 	0 	
0.055 -2.35127e-14 	0 	0 	
0.065 -2.64518e-14 	0 	0 	
0.075 -2.05736e-14 	0 	0 	
0.085 -3.82081e-14 	0 	0 	
0.095 -1.76345e-14 	0 	0 	
0.105 2.05736e-14 	0 	0 	
0.115 2.64518e-14 	0 	0 	
0.125 2.05736e-14 	0 	0 	
0.135 -2.64517e-14 	0 	0 	
0.145 -1.20502e-13 	-2.44728e-30 	0 	
0.155 -1.70467e-13 	0 	0 	
0.165 -1.52833e-13 	0 	0 	
0.175 -1.14624e-13 	0 	0 	
0.185 -5.58427e-14 	0 	0 	
0.195 1.46954e-14 	0 	0 	
0.205 4.40863e-14 	0 	0 	
0.215 3.82081e-14 	0 	0 	
0.225 6.17207e-14 	0 	0 	
0.235 8.52333e-14 	4.89455e-30 	0 	
0.245 5.58425e-14 	0 	0 	
0.255 1.46954e-14 	0 	0 	
0.265 -2.93907e-15 	0 	0 	
0.275 -2.93908e-15 	0 	0 	
0.285 0 	0 	0 	
0.295 0 	0 	0 	
0.305 0 	0 	0 	
0.315 -2.93907e-15 	0 	0 	
0.325 2.9391e-15 	0 	0 	
0.335 8.81725e-15 	0 	0 	
0.345 -2.9391e-15 	0 	0 	
0.355 -5.87818e-15 	0 	0 	
0.365 0 	0 	0 	
0.375 -8.81725e-15 	0 	0 	
0.385 -2.64517e-14 	0 	0 	
0.395 -4.40863e-14 	0 	0 	
0.405 -3.82081e-14 	0 	0 	
0.415 8.81725e-15 	0 	0 	
0.425 4.11472e-14 	0 	0 	
0.435 2.57275 	0 	0 	
0.445 14.5335 	0 	0 	
0.455 39.256 	0 	0 	
0.465 71.3045 	0 	0 	
0.475 102.084 	0 	0 	
0.485 122.689 	0 	0 	
0.495 129.471 	0 	0 	
0.505 129.523 	0 	0 	
0.515 130.259 	0 	0 	
0.525 131.177 	0 	0 	
0.535 130.633 	0 	0 	
0.545 125.827 	0 	0 	
0.555 104.448 	0 	0 	
0.565 61.3294 	0 	0 	
0.575 19.8256 	0 	0 	
0.585 2.16582 	0 	0 	
0.595 6.61295e-15 	0 	0 	
0.605 -3.30647e-14 	0 	0 	
0.615 -6.61294e-14 	0 	0 	
0.625 -6.17208e-14 	0 	0 	
0.635 -4.62906e-14 	0 	0 	
0.645 -2.42475e-14 	0 	0 	
0.655 2.2043e-15 	0 	0 	
0.665 -1.54302e-14 	0 	0 	
0.675 -3.74733e-14 	0 	0 	
0.685 -2.20431e-15 	0 	0 	
0.695 3.30647e-14 	0 	0 	
0.705 1.76345e-14 	0 	0 	
0.715 1.32259e-14 	0 	0 	
0.725 5.29035e-14 	0 	0 	
0.735 8.15596e-14 	0 	0 	
0.745 6.17208e-14 	0 	0 	
0.755 2.42475e-14 	0 	0 	
0.765 4.40863e-15 	0 	0 	
0.775 -4.40862e-15 	0 	0 	
0.785 -2.20431e-14 	0 	0 	
0.795 -2.64518e-14 	0 	0 	
0.805 2.2043e-15 	0 	0 	
0.815 2.42475e-14 	-3.67093e-30 	0 	
0.825 1.98389e-14 	0 	0 	
0.835 6.61295e-15 	0 	0 	
0.845 0 	0 	0 	
0.855 0 	0 	0 	
0.865 -1.32259e-14 	0 	0 	
0.875 -2.86561e-14 	0 	0 	
0.885 -1.98388e-14 	0 	0 	
0.895 -8.81726e-15 	0 	0 	
0.905 -1.32259e-14 	0 	0 	
0.915 -2.64518e-14 	0 	0 	
0.925 -2.86561e-14 	0 	0 	
0.935 -8.81726e-15 	0 	0 	
0.945 6.61294e-15 	0 	0 	
0.955 1.98388e-14 	0 	0 	
0.965 4.1882e-14 	0 	0 	
0.975 4.62907e-14 	0 	0 	
0.985 2.64518e-14 	0 	0 	
0.995 6.61295e-15 	0 	0 	
