0.005 3.5269e-14 	0 	0 	
0.015 3.5269e-14 	0 	0 	
0.025 3.5269e-14 	0 	0 	
0.035 -1.76345e-13 	0 	0 	
0.045 3.5269e-14 	0 	0 	
0.055 3.94798e-24 	0 	0 	
0.065 -1.05807e-13 	0 	0 	
0.075 -3.5269e-14 	0 	0 	
0.085 -3.5269e-14 	0 	0 	
0.095 -1.56626e-29 	0 	0 	
0.105 -1.05807e-13 	0 	0 	
0.115 7.8992e-24 	0 	0 	
0.125 3.5269e-14 	-3.42619e-30 	0 	
0.135 1.05807e-13 	0 	0 	
0.145 1.41076e-13 	0 	0 	
0.155 -7.0538e-14 	0 	0 	
0.165 7.0538e-14 	0 	0 	
0.175 -2.82152e-13 	-7.34184e-30 	0 	
0.185 -7.0538e-14 	-6.85239e-30 	0 	
0.195 7.0538e-14 	0 	0 	
0.205 -3.5269e-14 	0 	0 	
0.215 -2.46883e-13 	0 	0 	
0.225 -3.5269e-14 	0 	0 	
0.235 -3.17421e-13 	0 	0 	
0.245 -1.05807e-13 	0 	0 	
0.255 -3.52689e-14 	-8.07603e-30 	0 	
0.265 -3.5269e-14 	-7.34184e-30 	0 	
0.275 -7.0538e-14 	0 	0 	
0.285 7.0538e-14 	0 	0 	
0.295 4.69878e-29 	0 	0 	
0.305 1.05807e-13 	0 	0 	
0.315 -3.5269e-14 	0 	0 	
0.325 -3.52691e-14 	0 	0 	
0.335 3.5269e-13 	0 	0 	
0.345 2.91216e-09 	0 	0 	
0.355 1.78189e-06 	-6.85239e-30 	0 	
0.365 0.000222088 	0 	0 	
0.375 0.0092171 	0 	0 	
0.385 0.159405 	0 	0 	
0.395 1.31432 	0 	0 	
0.405 5.8541 	-2.48643e-31 	0 	
0.415 16.3558 	6.66338e-30 	0 	
0.425 33.2438 	2.15619e-30 	0 	
0.435 54.9964 	-4.32158e-31 	0 	
0.445 79.4075 	6.22138e-31 	0 	
0.455 103.548 	-2.98699e-46 	0 	
0.465 122.149 	-5.37217e-31 	0 	
0.475 129.507 	0 	0 	
0.485 130.198 	-1.84603e-31 	0 	
0.495 130.168 	1.84664e-31 	0 	
0.505 130.129 	-1.84763e-31 	0 	
0.515 -4167.81 	0 	0 	
0.525 -8.28958e+13 	0 	0 	
0.535 -8.79285e+26 	0 	0 	
0.545 5.59149e+28 	0 	0 	
0.555 9.41658e+26 	0 	0 	
0.565 4.75825e+27 	0 	0 	
0.575 3.67849e+23 	0 	0 	
0.585 8.82701e+22 	0 	0 	
0.595 2.62316e+19 	0 	0 	
0.605 6.59374e+13 	0 	0 	
0.615 1.79377e+08 	0 	0 	
0.625 0.297089 	0 	0 	
0.635 0.00381749 	0 	0 	
0.645 1.99443e-05 	0 	0 	
0.655 2.34772e-08 	0 	0 	
0.665 8.46456e-13 	0 	0 	
0.675 7.93555e-14 	0 	0 	
0.685 2.64515e-14 	0 	0 	
0.695 -2.6452e-14 	0 	0 	
0.705 2.6452e-14 	0 	0 	
0.715 -2.6452e-14 	0 	0 	
0.725 9.79696e-25 	0 	0 	
0.735 -1.05807e-13 	0 	0 	
0.745 -2.64517e-13 	0 	0 	
0.755 -2.64518e-14 	0 	0 	
0.765 -5.29035e-14 	0 	0 	
0.775 1.32259e-13 	0 	0 	
0.785 1.58711e-13 	0 	0 	
0.795 1.5871e-13 	0 	0 	
0.805 2.11614e-13 	0 	0 	
0.815 2.6452e-14 	0 	0 	
0.825 7.93553e-14 	0 	0 	
0.835 1.58711e-13 	0 	0 	
0.845 1.05807e-13 	0 	0 	
0.855 7.93555e-14 	0 	0 	
0.865 5.29035e-14 	0 	0 	
0.875 -5.29035e-14 	0 	0 	
0.885 2.64515e-14 	0 	0 	
0.895 -4.88965e-24 	0 	0 	
0.905 -7.93555e-14 	0 	0 	
0.915 -1.85162e-13 	0 	0 	
0.925 -1.32259e-13 	0 	0 	
0.935 2.64517e-14 	0 	0 	
0.945 2.38066e-13 	0 	0 	
0.955 1.85162e-13 	0 	0 	
0.965 5.29037e-14 	0 	0 	
0.975 -2.64518e-14 	0 	0 	
0.985 -1.58711e-13 	0 	0 	
0.995 1.5871e-13 	0 	0 	
