0.005 4.90141e-14 	0 	0 	
0.015 8.22944e-14 	0 	0 	
0.025 9.69898e-14 	0 	0 	
0.035 9.11116e-14 	0 	0 	
0.045 5.58426e-14 	0 	0 	
0.055 5.87818e-15 	0 	0 	
0.065 -1.76345e-14 	0 	0 	
0.075 -1.76345e-14 	0 	0 	
0.085 -1.46954e-14 	0 	0 	
0.095 2.93907e-15 	0 	0 	
0.105 5.87818e-15 	0 	0 	
0.115 -2.93908e-14 	0 	0 	
0.125 -7.0538e-14 	0 	0 	
0.135 -1.17564e-13 	0 	0 	
0.145 -1.70467e-13 	-3.26305e-31 	0 	
0.155 -1.79285e-13 	0 	0 	
0.165 -1.44015e-13 	0 	0 	
0.175 -1.14624e-13 	0 	0 	
0.185 -7.0538e-14 	0 	0 	
0.195 1.17563e-14 	0 	0 	
0.205 6.17208e-14 	0 	0 	
0.215 6.17208e-14 	0 	0 	
0.225 7.93552e-14 	0 	0 	
0.235 9.40505e-14 	6.52609e-31 	0 	
0.245 6.17207e-14 	0 	0 	
0.255 2.64518e-14 	0 	0 	
0.265 1.46954e-14 	0 	0 	
0.275 5.87818e-15 	0 	0 	
0.285 2.05736e-14 	0 	0 	
0.295 5.87817e-14 	0 	0 	
0.305 6.17208e-14 	0 	0 	
0.315 4.40863e-14 	0 	0 	
0.325 4.40863e-14 	0 	0 	
0.335 5.87818e-15 	0 	0 	
0.345 -6.17208e-14 	0 	0 	
0.355 -7.34772e-14 	0 	0 	
0.365 -5.29036e-14 	0 	0 	
0.375 -4.40863e-14 	0 	0 	
0.385 -4.40863e-14 	0 	0 	
0.395 -5.29035e-14 	0 	0 	
0.405 -4.70254e-14 	0 	0 	
0.415 0.100412 	0 	0 	
0.425 3.21452 	0 	0 	
0.435 15.1063 	0 	0 	
0.445 36.9494 	0 	0 	
0.455 63.7562 	0 	0 	
0.465 90.0289 	0 	0 	
0.475 111.501 	0 	0 	
0.485 125.263 	0 	0 	
0.495 130.931 	0 	0 	
0.505 131.054 	0 	0 	
0.515 129.639 	0 	0 	
0.525 129.462 	0 	0 	
0.535 130.813 	0 	0 	
0.545 131.913 	0 	0 	
0.555 129.001 	0 	0 	
0.565 111.938 	0 	0 	
0.575 72.0576 	-7.89875e-31 	0 	
0.585 27.2819 	0 	0 	
0.595 4.1974 	0 	0 	
0.605 -5.06992e-14 	0 	0 	
0.615 -6.39251e-14 	0 	0 	
0.625 -7.49467e-14 	0 	0 	
0.635 -7.49467e-14 	0 	0 	
0.645 -3.5269e-14 	0 	0 	
0.655 -6.61292e-15 	0 	0 	
0.665 -3.08604e-14 	0 	0 	
0.675 -3.30647e-14 	0 	0 	
0.685 2.42474e-14 	0 	0 	
0.695 5.95165e-14 	0 	0 	
0.705 3.74734e-14 	0 	0 	
0.715 2.64518e-14 	0 	0 	
0.725 6.17207e-14 	0 	0 	
0.735 9.2581e-14 	0 	0 	
0.745 7.0538e-14 	0 	0 	
0.755 1.98388e-14 	0 	0 	
0.765 -1.98388e-14 	0 	0 	
0.775 -3.74734e-14 	0 	0 	
0.785 -3.52691e-14 	0 	0 	
0.795 -3.96776e-14 	0 	0 	
0.805 -3.96777e-14 	0 	0 	
0.815 -1.76345e-14 	-4.89455e-31 	0 	
0.825 -2.20432e-15 	0 	0 	
0.835 2.20431e-15 	0 	0 	
0.845 1.10216e-14 	0 	0 	
0.855 3.74733e-14 	0 	0 	
0.865 6.61294e-14 	0 	0 	
0.875 4.62906e-14 	0 	0 	
0.885 -2.8656e-14 	0 	0 	
0.895 -6.61293e-14 	0 	0 	
0.905 -2.20431e-14 	0 	0 	
0.915 3.08604e-14 	0 	0 	
0.925 4.1882e-14 	0 	0 	
0.935 1.54302e-14 	0 	0 	
0.945 8.81727e-15 	0 	0 	
0.955 2.86561e-14 	0 	0 	
0.965 2.20432e-14 	0 	0 	
0.975 4.40863e-15 	0 	0 	
0.985 0 	0 	0 	
0.995 0 	0 	0 	
