0.005 1.46955e-14 	0 	0 	
0.015 2.93907e-14 	0 	0 	
0.025 2.9391e-14 	0 	0 	
0.035 2.93907e-14 	0 	0 	
0.045 -5.87817e-14 	0 	0 	
0.055 3.24995e-19 	0 	0 	
0.065 1.46957e-14 	0 	0 	
0.075 1.46954e-14 	0 	0 	
0.085 4.40862e-14 	0 	0 	
0.095 -5.87815e-14 	0 	0 	
0.105 5.48434e-24 	0 	0 	
0.115 5.48559e-24 	0 	0 	
0.125 8.81727e-14 	0 	0 	
0.135 4.4086e-14 	0 	0 	
0.145 -4.40865e-14 	0 	0 	
0.155 -1.46953e-14 	0 	0 	
0.165 2.93907e-14 	0 	0 	
0.175 -2.93907e-14 	0 	0 	
0.185 5.87815e-14 	0 	0 	
0.195 -7.34772e-14 	0 	0 	
0.205 2.9391e-14 	0 	0 	
0.215 1.82647e-24 	0 	0 	
0.225 -7.34772e-14 	0 	0 	
0.235 -7.30431e-24 	0 	0 	
0.245 7.34774e-14 	0 	0 	
0.255 4.40863e-14 	0 	0 	
0.265 -1.46955e-14 	0 	0 	
0.275 -8.81725e-14 	0 	0 	
0.285 7.34773e-14 	0 	0 	
0.295 7.34771e-14 	0 	0 	
0.305 -4.40863e-14 	0 	0 	
0.315 -2.50036e-20 	0 	0 	
0.325 -5.87815e-14 	0 	0 	
0.335 1.02868e-13 	0 	0 	
0.345 2.9391e-14 	0 	0 	
0.355 -4.40862e-14 	0 	0 	
0.365 -4.40862e-14 	0 	0 	
0.375 1.46954e-14 	0 	0 	
0.385 -7.34769e-14 	0 	0 	
0.395 7.34772e-14 	0 	0 	
0.405 2.93907e-14 	0 	0 	
0.415 7.3477e-14 	0 	0 	
0.425 -7.3477e-14 	0 	0 	
0.435 -1.02868e-13 	0 	0 	
0.445 5.8782e-14 	0 	0 	
0.455 4.40862e-14 	0 	0 	
0.465 -2.93908e-14 	0 	0 	
0.475 1.04599 	0 	0 	
0.485 22.9835 	0 	0 	
0.495 97.6213 	0 	0 	
0.505 129.132 	0 	0 	
0.515 93.4091 	0 	0 	
0.525 7.05406 	0 	0 	
0.535 -6.61292e-14 	0 	0 	
0.545 2.20432e-14 	0 	0 	
0.555 -2.20431e-14 	0 	0 	
0.565 5.5108e-14 	0 	0 	
0.575 -2.2043e-14 	0 	0 	
0.585 2.20429e-14 	0 	0 	
0.595 -3.30647e-14 	0 	0 	
0.605 -3.30646e-14 	0 	0 	
0.615 5.51079e-14 	0 	0 	
0.625 -2.20431e-14 	0 	0 	
0.635 -2.49973e-20 	0 	0 	
0.645 1.25004e-19 	0 	0 	
0.655 -3.30647e-14 	0 	0 	
0.665 -1.36315e-24 	0 	0 	
0.675 2.20431e-14 	0 	0 	
0.685 4.40863e-14 	0 	0 	
0.695 1.10215e-14 	0 	0 	
0.705 -3.15544e-30 	0 	0 	
0.715 7.71509e-14 	0 	0 	
0.725 -1.10216e-14 	0 	0 	
0.735 -8.81724e-14 	0 	0 	
0.745 2.49986e-20 	0 	0 	
0.755 6.61294e-14 	0 	0 	
0.765 -4.40862e-14 	0 	0 	
0.775 -1.76345e-13 	0 	0 	
0.785 3.30647e-14 	0 	0 	
0.795 2.20432e-14 	0 	0 	
0.805 7.71509e-14 	0 	0 	
0.815 5.51079e-14 	0 	0 	
0.825 -7.71509e-14 	0 	0 	
0.835 1.35824e-24 	0 	0 	
0.845 3.30645e-14 	0 	0 	
0.855 1.35823e-24 	0 	0 	
0.865 7.7151e-14 	0 	0 	
0.875 -2.20433e-14 	0 	0 	
0.885 -2.20431e-14 	0 	0 	
0.895 -1.10216e-14 	0 	0 	
0.905 3.30648e-14 	0 	0 	
0.915 -5.51076e-14 	0 	0 	
0.925 -7.71509e-14 	0 	0 	
0.935 4.99959e-20 	0 	0 	
0.945 4.40864e-14 	0 	0 	
0.955 4.40862e-14 	0 	0 	
0.965 5.51079e-14 	0 	0 	
0.975 1.10216e-14 	0 	0 	
0.985 2.50014e-20 	0 	0 	
0.995 3.30647e-14 	0 	0 	
