0.005 -3.06841e-14 	0 	0 	
0.015 -3.0684e-14 	0 	0 	
0.025 -3.40936e-14 	0 	0 	
0.035 -6.13682e-14 	0 	0 	
0.045 -1.36374e-13 	0 	0 	
0.055 4.43215e-14 	0 	0 	
0.065 -3.06841e-14 	0 	0 	
0.075 -5.114e-14 	0 	0 	
0.085 1.70464e-14 	0 	0 	
0.095 6.8187e-15 	0 	0 	
0.105 1.36373e-14 	0 	0 	
0.115 -2.00011e-19 	0 	0 	
0.125 1.09997e-25 	0 	0 	
0.135 3.06841e-14 	0 	0 	
0.145 -3.40935e-15 	0 	0 	
0.155 8.86431e-14 	0 	0 	
0.165 5.79587e-14 	0 	0 	
0.175 2.04561e-13 	0 	0 	
0.185 1.15918e-13 	-7.09712e-30 	0 	
0.195 -1.17497e-25 	0 	0 	
0.205 1.22737e-13 	0 	0 	
0.215 8.52336e-14 	0 	0 	
0.225 5.11398e-14 	0 	0 	
0.235 1.22736e-13 	0 	0 	
0.245 2.11379e-13 	0 	0 	
0.255 1.36374e-14 	-7.33369e-30 	0 	
0.265 1.15917e-13 	-3.54856e-30 	0 	
0.275 -3.40932e-14 	0 	0 	
0.285 1.50011e-13 	0 	0 	
0.295 8.86426e-14 	0 	0 	
0.305 -6.8187e-15 	0 	0 	
0.315 -4.09121e-14 	0 	0 	
0.325 -6.8187e-14 	0 	0 	
0.335 6.7164e-12 	0 	0 	
0.345 1.42223e-08 	0 	0 	
0.355 4.31535e-06 	-3.1937e-30 	0 	
0.365 0.000385309 	0 	0 	
0.375 0.0128081 	0 	0 	
0.385 0.190537 	0 	0 	
0.395 1.42929 	0 	0 	
0.405 6.06991 	0 	0 	
0.415 16.5828 	0 	0 	
0.425 33.3534 	0 	0 	
0.435 54.9331 	0 	0 	
0.445 79.1777 	0 	0 	
0.455 103.199 	0 	0 	
0.465 121.808 	0 	0 	
0.475 129.405 	0 	0 	
0.485 130.202 	0 	0 	
0.495 130.178 	7.14155e-31 	0 	
0.505 130.152 	0 	0 	
0.515 130.132 	0 	0 	
0.525 130.116 	0 	0 	
0.535 130.1 	0 	0 	
0.545 130.084 	0 	0 	
0.555 130.066 	0 	0 	
0.565 130.037 	0 	0 	
0.575 129.849 	0 	0 	
0.585 127.736 	0 	0 	
0.595 122.532 	0 	0 	
0.605 71.3581 	0 	0 	
0.615 11.7335 	0 	0 	
0.625 0.397541 	0 	0 	
0.635 0.00669834 	0 	0 	
0.645 4.94652e-05 	0 	0 	
0.655 1.19867e-07 	0 	0 	
0.665 4.41185e-11 	0 	0 	
0.675 6.39251e-14 	0 	0 	
0.685 7.67105e-14 	0 	0 	
0.695 -1.76292e-25 	0 	0 	
0.705 -5.36971e-14 	0 	0 	
0.715 2.04561e-14 	0 	0 	
0.725 -2.557e-14 	0 	0 	
0.735 7.67085e-15 	0 	0 	
0.745 -2.3013e-14 	0 	0 	
0.755 1.86661e-13 	0 	0 	
0.765 1.17622e-13 	0 	0 	
0.775 1.27848e-14 	0 	0 	
0.785 -4.3469e-14 	0 	0 	
0.795 1.04837e-13 	0 	0 	
0.805 -3.3241e-14 	0 	0 	
0.815 3.3241e-14 	0 	0 	
0.825 5.11401e-14 	0 	0 	
0.835 -6.64819e-14 	0 	0 	
0.845 6.13679e-14 	0 	0 	
0.855 -4.09119e-14 	0 	0 	
0.865 -1.5342e-14 	0 	0 	
0.875 -1.15065e-13 	0 	0 	
0.885 -1.2785e-14 	0 	0 	
0.895 -7.671e-15 	0 	0 	
0.905 -1.76292e-25 	0 	0 	
0.915 -5.3697e-14 	0 	0 	
0.925 1.2785e-14 	0 	0 	
0.935 3.3241e-14 	0 	0 	
0.945 -5.114e-15 	0 	0 	
0.955 7.4153e-14 	0 	0 	
0.965 2.55707e-15 	0 	0 	
0.975 -2.49991e-20 	0 	0 	
0.985 -1.5342e-14 	0 	0 	
0.995 -3.06841e-14 	0 	0 	
