0.005 3.38214e-14 	0 	0 	
0.015 6.17208e-14 	0 	0 	
0.025 9.11116e-14 	0 	0 	
0.035 9.11115e-14 	0 	0 	
0.045 3.8208e-14 	0 	0 	
0.055 -1.76345e-14 	0 	0 	
0.065 -3.23299e-14 	0 	0 	
0.075 -4.11472e-14 	0 	0 	
0.085 -4.70254e-14 	0 	0 	
0.095 -5.87818e-15 	0 	0 	
0.105 3.5269e-14 	0 	0 	
0.115 3.82081e-14 	0 	0 	
0.125 2.93909e-14 	0 	0 	
0.135 -1.76344e-14 	0 	0 	
0.145 -1.08746e-13 	-2.12098e-30 	0 	
0.155 -1.5871e-13 	0 	0 	
0.165 -1.35198e-13 	0 	0 	
0.175 -9.69897e-14 	0 	0 	
0.185 -4.99644e-14 	0 	0 	
0.195 1.76345e-14 	0 	0 	
0.205 5.29035e-14 	0 	0 	
0.215 4.70254e-14 	0 	0 	
0.225 6.17208e-14 	0 	0 	
0.235 7.34771e-14 	4.24196e-30 	0 	
0.245 4.11472e-14 	0 	0 	
0.255 5.87815e-15 	0 	0 	
0.265 -8.81727e-15 	0 	0 	
0.275 -5.87818e-15 	0 	0 	
0.285 0 	0 	0 	
0.295 0 	0 	0 	
0.305 0 	0 	0 	
0.315 -2.93907e-15 	0 	0 	
0.325 2.9391e-15 	0 	0 	
0.335 8.81725e-15 	0 	0 	
0.345 -2.9391e-15 	0 	0 	
0.355 -5.87818e-15 	0 	0 	
0.365 0 	0 	0 	
0.375 -8.81725e-15 	0 	0 	
0.385 -2.64517e-14 	0 	0 	
0.395 -4.11472e-14 	0 	0 	
0.405 -2.93909e-14 	0 	0 	
0.415 2.05736e-14 	0 	0 	
0.425 4.70254e-14 	0 	0 	
0.435 0.290497 	0 	0 	
0.445 5.40467 	0 	0 	
0.455 23.1246 	0 	0 	
0.465 53.706 	0 	0 	
0.475 88.5843 	0 	0 	
0.485 115.749 	0 	0 	
0.495 127.949 	0 	0 	
0.505 130.318 	0 	0 	
0.515 131.45 	0 	0 	
0.525 132.054 	0 	0 	
0.535 127.567 	0 	0 	
0.545 109.037 	0 	0 	
0.555 68.6004 	0 	0 	
0.565 24.7887 	0 	0 	
0.575 3.49223 	0 	0 	
0.585 1.32259e-14 	0 	0 	
0.595 4.40864e-15 	0 	0 	
0.605 -2.64518e-14 	0 	0 	
0.615 -5.95165e-14 	0 	0 	
0.625 -5.29036e-14 	0 	0 	
0.635 -3.52691e-14 	0 	0 	
0.645 -2.20432e-14 	0 	0 	
0.655 -2.50001e-20 	0 	0 	
0.665 -1.10216e-14 	0 	0 	
0.675 -2.86561e-14 	0 	0 	
0.685 -5.00033e-21 	0 	0 	
0.695 3.08604e-14 	0 	0 	
0.705 2.42475e-14 	0 	0 	
0.715 1.98388e-14 	0 	0 	
0.725 3.5269e-14 	0 	0 	
0.735 5.29036e-14 	0 	0 	
0.745 5.06993e-14 	0 	0 	
0.755 2.20432e-14 	0 	0 	
0.765 2.20432e-15 	0 	0 	
0.775 -4.40862e-15 	0 	0 	
0.785 -2.20431e-14 	0 	0 	
0.795 -2.64518e-14 	0 	0 	
0.805 2.2043e-15 	0 	0 	
0.815 2.42475e-14 	-3.18146e-30 	0 	
0.825 1.98389e-14 	0 	0 	
0.835 6.61295e-15 	0 	0 	
0.845 0 	0 	0 	
0.855 0 	0 	0 	
0.865 -8.81725e-15 	0 	0 	
0.875 -1.10216e-14 	0 	0 	
0.885 6.61296e-15 	0 	0 	
0.895 -2.20432e-15 	0 	0 	
0.905 -3.30647e-14 	0 	0 	
0.915 -3.74734e-14 	0 	0 	
0.925 -2.20432e-14 	0 	0 	
0.935 -1.62845e-25 	0 	0 	
0.945 1.10216e-14 	0 	0 	
0.955 1.32259e-14 	0 	0 	
0.965 3.08604e-14 	0 	0 	
0.975 3.5269e-14 	0 	0 	
0.985 1.54302e-14 	0 	0 	
0.995 2.20432e-15 	0 	0 	
