0.005 4.04124e-14 	0 	0 	
0.015 -1.6165e-14 	0 	0 	
0.025 -1.61646e-14 	0 	0 	
0.035 -1.6165e-14 	0 	0 	
0.045 -4.04125e-14 	0 	0 	
0.055 -2.42475e-14 	0 	0 	
0.065 2.42475e-14 	0 	0 	
0.075 1.61651e-14 	0 	0 	
0.085 -4.8495e-14 	0 	0 	
0.095 4.84949e-14 	0 	0 	
0.105 4.04125e-14 	0 	0 	
0.115 1.6165e-14 	0 	0 	
0.125 -1.6165e-14 	0 	0 	
0.135 -8.0825e-15 	0 	0 	
0.145 5.87611e-25 	0 	0 	
0.155 -8.89074e-14 	0 	0 	
0.165 9.699e-14 	0 	0 	
0.175 5.65774e-14 	0 	0 	
0.185 6.46602e-14 	0 	0 	
0.195 -5.65775e-14 	0 	0 	
0.205 7.27426e-14 	0 	0 	
0.215 6.46601e-14 	0 	0 	
0.225 2.42475e-14 	0 	0 	
0.235 5.65774e-14 	0 	0 	
0.245 -2.42475e-14 	0 	0 	
0.255 2.42479e-14 	0 	0 	
0.265 2.42475e-14 	0 	0 	
0.275 1.45485e-13 	0 	0 	
0.285 -1.61646e-14 	0 	0 	
0.295 2.42475e-14 	0 	0 	
0.305 8.08249e-15 	0 	0 	
0.315 -3.23296e-14 	2.692e-30 	0 	
0.325 -4.04125e-14 	0 	0 	
0.335 3.23296e-14 	-2.692e-30 	0 	
0.345 -8.08255e-15 	0 	0 	
0.355 -8.08251e-14 	-1.346e-30 	0 	
0.365 3.233e-14 	5.384e-30 	0 	
0.375 4.84949e-14 	0 	0 	
0.385 -5.65776e-14 	0 	0 	
0.395 1.61646e-14 	0 	0 	
0.405 -8.08249e-15 	0 	0 	
0.415 6.3709e-07 	0 	0 	
0.425 0.00109157 	0 	0 	
0.435 0.105981 	0 	0 	
0.445 2.02642 	0 	0 	
0.455 12.8058 	0 	0 	
0.465 39.4648 	-2.26732e-30 	0 	
0.475 79.3572 	0 	0 	
0.485 117.792 	0 	0 	
0.495 130.041 	-4.23941e-31 	0 	
0.505 130.187 	-4.26029e-31 	0 	
0.515 130.136 	0 	0 	
0.525 130.033 	0 	0 	
0.535 128.268 	0 	0 	
0.545 110.119 	0 	0 	
0.555 38.9285 	0 	0 	
0.565 1.46355 	0 	0 	
0.575 0.00886166 	0 	0 	
0.585 3.45741e-06 	0 	0 	
0.595 7.27425e-14 	0 	0 	
0.605 1.21237e-14 	0 	0 	
0.615 -1.81856e-14 	0 	0 	
0.625 3.63712e-14 	0 	0 	
0.635 -6.06207e-15 	0 	0 	
0.645 -7.27424e-14 	0 	0 	
0.655 7.27426e-14 	0 	0 	
0.665 -1.21238e-14 	0 	0 	
0.675 3.03093e-14 	0 	0 	
0.685 -1.21238e-14 	0 	0 	
0.695 -8.48662e-14 	0 	0 	
0.705 1.21238e-14 	0 	0 	
0.715 4.2433e-14 	0 	0 	
0.725 4.84951e-14 	0 	0 	
0.735 3.63714e-14 	0 	0 	
0.745 7.88042e-14 	0 	0 	
0.755 -4.24332e-14 	0 	0 	
0.765 5.45568e-14 	0 	0 	
0.775 5.13308e-20 	0 	0 	
0.785 -4.8495e-14 	0 	0 	
0.795 -5.45569e-14 	0 	0 	
0.805 4.8495e-14 	0 	0 	
0.815 1.81857e-14 	0 	0 	
0.825 -6.06186e-15 	0 	0 	
0.835 8.48662e-14 	0 	0 	
0.845 -5.45569e-14 	0 	0 	
0.855 1.21237e-14 	0 	0 	
0.865 3.63712e-14 	0 	0 	
0.875 5.45568e-14 	0 	0 	
0.885 1.15175e-13 	0 	0 	
0.895 -1.33361e-13 	0 	0 	
0.905 -1.81856e-14 	0 	0 	
0.915 -6.0619e-15 	0 	0 	
0.925 7.27424e-14 	0 	0 	
0.935 2.42474e-14 	0 	0 	
0.945 5.45564e-14 	0 	0 	
0.955 1.69732e-13 	0 	0 	
0.965 -3.03093e-14 	0 	0 	
0.975 -1.81857e-14 	0 	0 	
0.985 -7.88042e-14 	0 	0 	
0.995 -1.51547e-13 	0 	0 	
