0.005 1.31612e-24 	0 	0 	
0.015 -7.05381e-14 	0 	0 	
0.025 -5.2644e-24 	0 	0 	
0.035 1.41076e-13 	0 	0 	
0.045 7.0538e-14 	0 	0 	
0.055 1.41076e-13 	0 	0 	
0.065 7.05379e-14 	0 	0 	
0.075 -1.41076e-13 	0 	0 	
0.085 -3.52689e-14 	0 	0 	
0.095 -7.0538e-14 	0 	0 	
0.105 -1.05807e-13 	0 	0 	
0.115 -1.41076e-13 	0 	0 	
0.125 1.41076e-13 	-6.11821e-31 	0 	
0.135 1.05807e-13 	0 	0 	
0.145 -7.05381e-14 	0 	0 	
0.155 1.05807e-13 	0 	0 	
0.165 1.05807e-13 	0 	0 	
0.175 3.52689e-14 	-1.46837e-30 	0 	
0.185 -3.5269e-14 	-1.46837e-30 	0 	
0.195 1.41076e-13 	0 	0 	
0.205 -2.11614e-13 	0 	0 	
0.215 -3.52689e-14 	0 	0 	
0.225 1.31507e-24 	0 	0 	
0.235 -1.41076e-13 	0 	0 	
0.245 -1.05807e-13 	0 	0 	
0.255 1.76345e-13 	-1.46837e-30 	0 	
0.265 3.52689e-14 	-1.7131e-30 	0 	
0.275 1.76345e-13 	0 	0 	
0.285 7.0538e-14 	0 	0 	
0.295 7.05381e-14 	0 	0 	
0.305 3.5269e-14 	0 	0 	
0.315 -3.5269e-14 	0 	0 	
0.325 7.0538e-14 	0 	0 	
0.335 -7.05381e-14 	0 	0 	
0.345 -9.35174e-30 	0 	0 	
0.355 -3.5269e-14 	-1.46837e-30 	0 	
0.365 -3.5269e-14 	0 	0 	
0.375 7.05381e-14 	0 	0 	
0.385 -1.31213e-24 	0 	0 	
0.395 -1.05807e-13 	0 	0 	
0.405 -3.5269e-14 	0 	0 	
0.415 3.5269e-14 	1.46837e-30 	0 	
0.425 -1.05807e-13 	1.22364e-30 	0 	
0.435 1.41076e-13 	-7.34184e-31 	0 	
0.445 3.5269e-14 	1.22364e-30 	0 	
0.455 -7.05385e-14 	0 	0 	
0.465 7.0538e-14 	0 	0 	
0.475 3.45159 	0 	0 	
0.485 38.8892 	5.43e-31 	0 	
0.495 113.605 	3.45013e-31 	0 	
0.505 130.141 	-2.0106e-31 	0 	
0.515 115.701 	0 	0 	
0.525 29.5661 	0 	0 	
0.535 5.11974e-12 	0 	0 	
0.545 7.93553e-14 	0 	0 	
0.555 5.29037e-14 	0 	0 	
0.565 7.93555e-14 	0 	0 	
0.575 -2.11614e-13 	0 	0 	
0.585 9.81467e-25 	0 	0 	
0.595 -7.93552e-14 	0 	0 	
0.605 7.93555e-14 	0 	0 	
0.615 2.11614e-13 	0 	0 	
0.625 2.94437e-24 	0 	0 	
0.635 5.29035e-14 	0 	0 	
0.645 2.6452e-14 	0 	0 	
0.655 -2.6452e-14 	0 	0 	
0.665 -1.05807e-13 	0 	0 	
0.675 2.6452e-14 	0 	0 	
0.685 2.64518e-14 	0 	0 	
0.695 1.32258e-13 	0 	0 	
0.705 5.29035e-14 	0 	0 	
0.715 5.29036e-14 	0 	0 	
0.725 2.93907e-24 	0 	0 	
0.735 1.85163e-13 	0 	0 	
0.745 -2.64517e-14 	0 	0 	
0.755 -1.32259e-13 	0 	0 	
0.765 1.05807e-13 	0 	0 	
0.775 5.29035e-14 	0 	0 	
0.785 -5.29035e-14 	0 	0 	
0.795 4.89845e-24 	0 	0 	
0.805 1.32259e-13 	0 	0 	
0.815 1.32259e-13 	0 	0 	
0.825 -7.93552e-14 	0 	0 	
0.835 5.29035e-14 	0 	0 	
0.845 -1.95584e-24 	0 	0 	
0.855 2.93378e-24 	0 	0 	
0.865 2.64515e-14 	0 	0 	
0.875 -7.93555e-14 	0 	0 	
0.885 5.29036e-14 	0 	0 	
0.895 -5.29035e-14 	0 	0 	
0.905 2.64517e-14 	0 	0 	
0.915 1.85162e-13 	0 	0 	
0.925 1.95583e-24 	0 	0 	
0.935 7.93555e-14 	0 	0 	
0.945 -2.64515e-14 	0 	0 	
0.955 1.32259e-13 	0 	0 	
0.965 -5.29035e-14 	0 	0 	
0.975 2.6452e-14 	0 	0 	
0.985 -7.93555e-14 	0 	0 	
0.995 5.29035e-14 	0 	0 	
