0.005 -3.233e-14 	0 	0 	
0.015 -8.0825e-14 	0 	0 	
0.025 -3.233e-14 	0 	0 	
0.035 -3.233e-14 	0 	0 	
0.045 -1.6165e-14 	0 	0 	
0.055 -1.13155e-13 	0 	0 	
0.065 4.8495e-14 	0 	0 	
0.075 8.0825e-14 	0 	0 	
0.085 4.04125e-14 	0 	0 	
0.095 -2.42476e-14 	0 	0 	
0.105 7.27425e-14 	0 	0 	
0.115 1.37402e-13 	0 	0 	
0.125 8.08249e-15 	0 	0 	
0.135 -4.84946e-14 	0 	0 	
0.145 8.0825e-14 	0 	0 	
0.155 -4.04125e-14 	0 	0 	
0.165 1.13155e-13 	0 	0 	
0.175 -1.37402e-13 	0 	0 	
0.185 4.04125e-14 	0 	0 	
0.195 -2.42475e-14 	0 	0 	
0.205 4.84949e-14 	0 	0 	
0.215 -1.21237e-13 	0 	0 	
0.225 1.6165e-14 	0 	0 	
0.235 -1.77197e-21 	0 	0 	
0.245 -2.42471e-14 	0 	0 	
0.255 3.92737e-20 	0 	0 	
0.265 8.89072e-14 	0 	0 	
0.275 4.04125e-14 	0 	0 	
0.285 -4.8495e-14 	0 	0 	
0.295 8.08262e-15 	0 	0 	
0.305 -3.233e-14 	0 	0 	
0.315 7.92084e-12 	6.28135e-30 	0 	
0.325 4.77218e-09 	0 	0 	
0.335 8.80013e-07 	-6.28135e-30 	0 	
0.345 6.17843e-05 	0 	0 	
0.355 0.00206892 	-3.36503e-30 	0 	
0.365 0.0354778 	1.25639e-29 	0 	
0.375 0.338176 	0 	0 	
0.385 1.88549 	0 	0 	
0.395 6.65246 	0 	0 	
0.405 16.4098 	1.41218e-30 	0 	
0.415 31.368 	0 	0 	
0.425 50.4266 	-1.56699e-30 	0 	
0.435 72.0068 	0 	0 	
0.445 94.2069 	-1.80005e-30 	0 	
0.455 113.988 	-2.5735e-30 	0 	
0.465 126.462 	-2.00327e-30 	0 	
0.475 129.987 	0 	0 	
0.485 130.199 	0 	0 	
0.495 130.172 	-7.61774e-31 	0 	
0.505 130.15 	-6.77461e-31 	0 	
0.515 130.133 	0 	0 	
0.525 130.119 	0 	0 	
0.535 130.106 	0 	0 	
0.545 130.094 	0 	0 	
0.555 130.082 	0 	0 	
0.565 130.07 	0 	0 	
0.575 130.05 	0 	0 	
0.585 129.953 	0 	0 	
0.595 129.109 	0 	0 	
0.605 123.092 	0 	0 	
0.615 93.09 	0 	0 	
0.625 26.0391 	0 	0 	
0.635 1.57742 	0 	0 	
0.645 0.0500886 	0 	0 	
0.655 0.000953619 	0 	0 	
0.665 9.7997e-06 	0 	0 	
0.675 4.09483e-08 	0 	0 	
0.685 5.51994e-11 	0 	0 	
0.695 2.42476e-14 	0 	0 	
0.705 5.45568e-14 	0 	0 	
0.715 -3.03094e-14 	0 	0 	
0.725 -6.06186e-15 	0 	0 	
0.735 -2.42475e-14 	0 	0 	
0.745 1.27299e-13 	0 	0 	
0.755 1.21238e-14 	0 	0 	
0.765 6.0619e-15 	0 	0 	
0.775 3.63712e-14 	0 	0 	
0.785 -6.06187e-14 	0 	0 	
0.795 -4.24332e-14 	0 	0 	
0.805 -6.66801e-14 	0 	0 	
0.815 1.21239e-14 	0 	0 	
0.825 -6.38378e-20 	0 	0 	
0.835 -3.63713e-14 	0 	0 	
0.845 4.2433e-14 	0 	0 	
0.855 8.48662e-14 	0 	0 	
0.865 6.06197e-15 	0 	0 	
0.875 -4.2433e-14 	0 	0 	
0.885 3.03093e-14 	0 	0 	
0.895 -8.48662e-14 	0 	0 	
0.905 -3.63713e-14 	0 	0 	
0.915 -3.63712e-14 	0 	0 	
0.925 1.81855e-14 	0 	0 	
0.935 -1.81857e-14 	0 	0 	
0.945 -9.69899e-14 	0 	0 	
0.955 -1.81856e-14 	0 	0 	
0.965 -4.8495e-14 	0 	0 	
0.975 1.87918e-13 	0 	0 	
0.985 -6.06182e-15 	0 	0 	
0.995 -9.69899e-14 	0 	0 	
