0.005 5.87817e-15 	0 	0 	
0.015 3.5269e-14 	0 	0 	
0.025 8.22943e-14 	0 	0 	
0.035 9.11115e-14 	0 	0 	
0.045 4.40862e-14 	0 	0 	
0.055 -2.93907e-15 	0 	0 	
0.065 -3.5269e-14 	0 	0 	
0.075 -7.05381e-14 	0 	0 	
0.085 -6.46599e-14 	0 	0 	
0.095 2.93905e-15 	0 	0 	
0.105 5.87817e-14 	0 	0 	
0.115 5.87817e-14 	0 	0 	
0.125 2.35127e-14 	0 	0 	
0.135 -3.8208e-14 	0 	0 	
0.145 -1.02868e-13 	-1.30521e-30 	0 	
0.155 -1.2932e-13 	9.78913e-31 	0 	
0.165 -1.14624e-13 	0 	0 	
0.175 -8.22943e-14 	0 	0 	
0.185 -3.52691e-14 	0 	0 	
0.195 2.93908e-14 	0 	0 	
0.205 6.46599e-14 	0 	0 	
0.215 4.99645e-14 	0 	0 	
0.225 4.70253e-14 	0 	0 	
0.235 5.29035e-14 	2.93674e-30 	0 	
0.245 2.93908e-14 	6.52609e-31 	0 	
0.255 5.87815e-15 	0 	0 	
0.265 -2.93907e-15 	0 	0 	
0.275 -2.93908e-15 	0 	0 	
0.285 0 	0 	0 	
0.295 0 	0 	0 	
0.305 5.87817e-15 	0 	0 	
0.315 2.64518e-14 	0 	0 	
0.325 3.233e-14 	0 	0 	
0.335 1.46955e-14 	0 	0 	
0.345 2.9391e-15 	0 	0 	
0.355 -1.76345e-14 	0 	0 	
0.365 -3.5269e-14 	0 	0 	
0.375 -3.233e-14 	0 	0 	
0.385 -3.23299e-14 	0 	0 	
0.395 -3.5269e-14 	0 	0 	
0.405 -1.76345e-14 	0 	0 	
0.415 2.64518e-14 	0 	0 	
0.425 4.40863e-14 	0 	0 	
0.435 1.76345e-14 	0 	0 	
0.445 1.26542 	0 	0 	
0.455 10.7232 	0 	0 	
0.465 35.6918 	0 	0 	
0.475 71.7536 	0 	0 	
0.485 104.49 	0 	0 	
0.495 124.043 	0 	0 	
0.505 131.916 	0 	0 	
0.515 132.736 	0 	0 	
0.525 128.949 	0 	0 	
0.535 113.335 	0 	0 	
0.545 74.9309 	0 	0 	
0.555 29.4593 	0 	0 	
0.565 4.80608 	0 	0 	
0.575 -8.81727e-15 	-4.89455e-31 	0 	
0.585 6.61295e-15 	0 	0 	
0.595 6.61295e-15 	0 	0 	
0.605 -1.98388e-14 	0 	0 	
0.615 -5.51078e-14 	0 	0 	
0.625 -5.73122e-14 	0 	0 	
0.635 -3.08604e-14 	0 	0 	
0.645 -5.00022e-21 	0 	0 	
0.655 1.54302e-14 	0 	0 	
0.665 -1.54302e-14 	0 	0 	
0.675 -4.40863e-14 	0 	0 	
0.685 -1.54302e-14 	0 	0 	
0.695 3.30647e-14 	0 	0 	
0.705 5.06992e-14 	0 	0 	
0.715 4.40863e-14 	0 	0 	
0.725 3.74734e-14 	0 	0 	
0.735 3.08604e-14 	0 	0 	
0.745 1.98389e-14 	0 	0 	
0.755 6.61295e-15 	0 	0 	
0.765 0 	0 	0 	
0.775 -4.40862e-15 	0 	0 	
0.785 -2.20431e-14 	0 	0 	
0.795 -2.64518e-14 	0 	0 	
0.805 2.2043e-15 	0 	0 	
0.815 2.42475e-14 	-2.692e-30 	0 	
0.825 1.98389e-14 	0 	0 	
0.835 6.61295e-15 	0 	0 	
0.845 0 	0 	0 	
0.855 -2.20431e-15 	0 	0 	
0.865 -1.10216e-14 	0 	0 	
0.875 -8.81727e-15 	0 	0 	
0.885 8.81726e-15 	0 	0 	
0.895 1.10216e-14 	0 	0 	
0.905 -4.40863e-15 	0 	0 	
0.915 -3.30647e-14 	0 	0 	
0.925 -4.1882e-14 	0 	0 	
0.935 4.40862e-15 	0 	0 	
0.945 4.1882e-14 	0 	0 	
0.955 2.86561e-14 	0 	0 	
0.965 6.61295e-15 	0 	0 	
0.975 0 	0 	0 	
0.985 0 	0 	0 	
0.995 0 	0 	0 	
