0.005 4.90141e-14 	0 	0 	
0.015 8.22944e-14 	0 	0 	
0.025 9.99288e-14 	0 	0 	
0.035 9.11115e-14 	0 	0 	
0.045 3.52689e-14 	0 	0 	
0.055 -2.35127e-14 	0 	0 	
0.065 -2.93909e-14 	0 	0 	
0.075 -2.05736e-14 	0 	0 	
0.085 -2.64518e-14 	0 	0 	
0.095 -1.17563e-14 	0 	0 	
0.105 1.17563e-14 	0 	0 	
0.115 1.17563e-14 	0 	0 	
0.125 -1.17563e-14 	0 	0 	
0.135 -5.58426e-14 	0 	0 	
0.145 -9.99289e-14 	-6.03663e-30 	0 	
0.155 -1.26381e-13 	0 	0 	
0.165 -1.58711e-13 	0 	0 	
0.175 -1.9398e-13 	0 	0 	
0.185 -1.79285e-13 	0 	0 	
0.195 -1.35198e-13 	0 	0 	
0.205 -1.11685e-13 	0 	0 	
0.215 -8.52334e-14 	0 	0 	
0.225 -4.40863e-14 	0 	0 	
0.235 -1.46954e-14 	1.20733e-29 	0 	
0.245 -1.76345e-14 	0 	0 	
0.255 -3.23299e-14 	0 	0 	
0.265 -5.87815e-15 	0 	0 	
0.275 5.29035e-14 	0 	0 	
0.285 7.93553e-14 	0 	0 	
0.295 4.99645e-14 	0 	0 	
0.305 1.17564e-14 	0 	0 	
0.315 -2.93907e-15 	0 	0 	
0.325 2.9391e-15 	0 	0 	
0.335 8.81725e-15 	0 	0 	
0.345 -2.9391e-15 	0 	0 	
0.355 0.243493 	0 	0 	
0.365 3.12756 	0 	0 	
0.375 12.0061 	0 	0 	
0.385 26.4544 	0 	0 	
0.395 43.613 	0 	0 	
0.405 61.7449 	0 	0 	
0.415 79.9362 	0 	0 	
0.425 97.1587 	0 	0 	
0.435 111.922 	0 	0 	
0.445 122.379 	0 	0 	
0.455 127.874 	0 	0 	
0.465 130.01 	0 	0 	
0.475 130.644 	0 	0 	
0.485 130.575 	0 	0 	
0.495 130.239 	0 	0 	
0.505 129.918 	0 	0 	
0.515 129.738 	0 	0 	
0.525 129.788 	0 	0 	
0.535 130.088 	0 	0 	
0.545 130.457 	0 	0 	
0.555 130.687 	0 	0 	
0.565 130.656 	0 	0 	
0.575 130.361 	-3.37992e-30 	0 	
0.585 129.984 	-2.70775e-30 	0 	
0.595 129.594 	0 	0 	
0.605 129.258 	0 	0 	
0.615 129.547 	0 	0 	
0.625 129.499 	0 	0 	
0.635 125.935 	0 	0 	
0.645 110.588 	0 	0 	
0.655 73.8843 	0 	0 	
0.665 29.8582 	0 	0 	
0.675 5.14468 	0 	0 	
0.685 5.73122e-14 	0 	0 	
0.695 4.62906e-14 	0 	0 	
0.705 5.51079e-14 	0 	0 	
0.715 5.51079e-14 	0 	0 	
0.725 6.61295e-14 	0 	0 	
0.735 8.15598e-14 	0 	0 	
0.745 5.06993e-14 	0 	0 	
0.755 6.61293e-15 	0 	0 	
0.765 -2.42475e-14 	0 	0 	
0.775 -4.1882e-14 	0 	0 	
0.785 -5.06992e-14 	0 	0 	
0.795 -6.17208e-14 	0 	0 	
0.805 -4.84949e-14 	0 	0 	
0.815 -2.20432e-14 	-9.05493e-30 	0 	
0.825 -1.98388e-14 	0 	0 	
0.835 -2.86561e-14 	0 	0 	
0.845 -1.10216e-14 	0 	0 	
0.855 2.20431e-14 	0 	0 	
0.865 2.42475e-14 	0 	0 	
0.875 1.63036e-25 	0 	0 	
0.885 -4.18819e-14 	0 	0 	
0.895 -8.37638e-14 	0 	0 	
0.905 -7.27423e-14 	0 	0 	
0.915 -2.86561e-14 	0 	0 	
0.925 -1.08607e-25 	0 	0 	
0.935 1.76345e-14 	0 	0 	
0.945 5.51079e-14 	0 	0 	
0.955 1.1242e-13 	0 	0 	
0.965 1.2785e-13 	0 	0 	
0.975 9.25811e-14 	0 	0 	
0.985 6.61294e-14 	0 	0 	
0.995 4.89007e-14 	0 	0 	
