0.005 1.37373e-13 	0 	0 	
0.015 4.35576e-14 	0 	0 	
0.025 1.1727e-13 	0 	0 	
0.035 -6.70113e-15 	0 	0 	
0.045 1.37373e-13 	0 	0 	
0.055 -5.52842e-14 	0 	0 	
0.065 8.87896e-14 	0 	0 	
0.075 -8.37635e-15 	0 	0 	
0.085 1.55801e-13 	0 	0 	
0.095 7.70626e-14 	0 	0 	
0.105 -1.34021e-14 	0 	0 	
0.115 1.50775e-13 	0 	0 	
0.125 2.34539e-13 	0 	0 	
0.135 -5.8635e-14 	0 	0 	
0.145 -1.67541e-15 	0 	0 	
0.155 -5.36091e-14 	0 	0 	
0.165 3.3506e-14 	0 	0 	
0.175 3.35056e-14 	0 	0 	
0.185 2.04384e-13 	0 	0 	
0.195 -1.18945e-13 	0 	0 	
0.205 6.19855e-14 	0 	0 	
0.215 3.35045e-15 	0 	0 	
0.225 -1.67528e-14 	0 	0 	
0.235 6.36608e-14 	0 	0 	
0.245 4.69079e-14 	0 	0 	
0.255 3.85313e-14 	0 	0 	
0.265 2.54223e-11 	0 	0 	
0.275 4.49318e-09 	0 	0 	
0.285 3.72967e-07 	0 	0 	
0.295 1.59302e-05 	0 	0 	
0.305 0.000403032 	0 	0 	
0.315 0.0063245 	0 	0 	
0.325 0.0616344 	0 	0 	
0.335 0.390975 	0 	0 	
0.345 1.68932 	0 	0 	
0.355 5.1267 	0 	0 	
0.365 11.7331 	0 	0 	
0.375 21.776 	0 	0 	
0.385 34.7376 	0 	0 	
0.395 49.837 	0 	0 	
0.405 66.3025 	0 	0 	
0.415 83.3634 	0 	0 	
0.425 100.063 	-6.36879e-31 	0 	
0.435 114.826 	0 	0 	
0.445 125.121 	0 	0 	
0.455 129.441 	0 	0 	
0.465 130.173 	1.40186e-30 	0 	
0.475 130.183 	0 	0 	
0.485 130.162 	0 	0 	
0.495 130.146 	0 	0 	
0.505 130.133 	0 	0 	
0.515 130.123 	0 	0 	
0.525 130.114 	0 	0 	
0.535 130.107 	0 	0 	
0.545 130.1 	0 	0 	
0.555 130.092 	0 	0 	
0.565 130.085 	0 	0 	
0.575 130.078 	0 	0 	
0.585 130.069 	0 	0 	
0.595 130.059 	0 	0 	
0.605 130.046 	0 	0 	
0.615 130.023 	0 	0 	
0.625 129.979 	0 	0 	
0.635 130.007 	0 	0 	
0.645 121.193 	0 	0 	
0.655 82.1108 	0 	0 	
0.665 52.7786 	0 	0 	
0.675 10.2421 	0 	0 	
0.685 0.482424 	0 	0 	
0.695 0.0157392 	0 	0 	
0.705 0.000383065 	0 	0 	
0.715 6.24218e-06 	0 	0 	
0.725 5.63832e-08 	0 	0 	
0.735 2.52994e-10 	0 	0 	
0.745 6.21948e-13 	0 	0 	
0.755 7.53875e-14 	0 	0 	
0.765 1.18107e-13 	0 	0 	
0.775 3.76936e-14 	0 	0 	
0.785 3.64374e-14 	0 	0 	
0.795 1.10568e-13 	0 	0 	
0.805 -3.89503e-14 	0 	0 	
0.815 6.78488e-14 	0 	0 	
0.825 3.14115e-14 	0 	0 	
0.835 -2.13596e-14 	0 	0 	
0.845 -5.90537e-14 	0 	0 	
0.855 -2.38726e-14 	0 	0 	
0.865 1.2439e-13 	0 	0 	
0.875 -6.91055e-14 	0 	0 	
0.885 -1.88468e-14 	0 	0 	
0.895 -3.76938e-15 	0 	0 	
0.905 2.13599e-14 	0 	0 	
0.915 4.77456e-14 	0 	0 	
0.925 5.02585e-14 	0 	0 	
0.935 -1.19364e-13 	0 	0 	
0.945 2.38728e-14 	0 	0 	
0.955 -8.79525e-15 	0 	0 	
0.965 3.76937e-15 	0 	0 	
0.975 1.00517e-13 	0 	0 	
0.985 1.25646e-13 	0 	0 	
0.995 3.14114e-14 	0 	0 	
