0.005 7.2626e-14 	0 	0 	
0.015 3.36231e-14 	0 	0 	
0.025 2.01738e-14 	0 	0 	
0.035 -1.31803e-13 	0 	0 	
0.045 8.74207e-15 	0 	0 	
0.055 -6.45565e-14 	0 	0 	
0.065 -7.66604e-14 	0 	0 	
0.075 -3.36231e-15 	0 	0 	
0.085 -8.33857e-14 	0 	0 	
0.095 1.34484e-15 	0 	0 	
0.105 8.87653e-14 	0 	0 	
0.115 4.10204e-14 	1.63315e-30 	0 	
0.125 -3.36232e-14 	0 	0 	
0.135 6.05216e-14 	0 	0 	
0.145 -6.52291e-14 	0 	0 	
0.155 -1.21044e-14 	0 	0 	
0.165 -5.44693e-14 	0 	0 	
0.175 -4.371e-14 	0 	0 	
0.185 -3.3623e-14 	0 	0 	
0.195 5.91766e-14 	0 	0 	
0.205 -1.08267e-13 	0 	0 	
0.215 -2.95211e-13 	0 	0 	
0.225 -6.72465e-14 	0 	0 	
0.235 -4.43822e-14 	0 	0 	
0.245 6.25392e-14 	0 	0 	
0.255 -1.10956e-13 	0 	0 	
0.265 -4.97626e-14 	0 	0 	
0.275 -1.00869e-14 	0 	0 	
0.285 -1.34492e-15 	0 	0 	
0.295 2.68973e-15 	0 	0 	
0.305 1.0356e-13 	0 	0 	
0.315 -1.34493e-13 	0 	0 	
0.325 -2.45449e-13 	0 	0 	
0.335 1.21716e-13 	0 	0 	
0.345 1.01542e-13 	0 	0 	
0.355 -3.76578e-14 	0 	0 	
0.365 5.87625e-25 	0 	0 	
0.375 -1.00869e-13 	0 	0 	
0.385 -4.10204e-14 	0 	0 	
0.395 -2.75708e-14 	0 	0 	
0.405 -2.15191e-14 	0 	0 	
0.415 1.68115e-13 	0 	0 	
0.425 7.3971e-14 	0 	0 	
0.435 2.75711e-14 	0 	0 	
0.445 -5.17798e-14 	0 	0 	
0.455 -6.72463e-14 	0 	0 	
0.465 0.0103244 	0 	0 	
0.475 3.867 	0 	0 	
0.485 39.1221 	0 	0 	
0.495 112.669 	0 	0 	
0.505 130.11 	0 	0 	
0.515 117.622 	0 	0 	
0.525 34.0691 	0 	0 	
0.535 0.0485399 	0 	0 	
0.545 9.98605e-14 	0 	0 	
0.555 2.52167e-15 	0 	0 	
0.565 -2.26956e-14 	0 	0 	
0.575 1.00869e-14 	0 	0 	
0.585 -1.05913e-14 	0 	0 	
0.595 -6.70786e-14 	0 	0 	
0.605 -4.53913e-15 	0 	0 	
0.615 -4.18606e-14 	0 	0 	
0.625 3.7826e-14 	0 	0 	
0.635 -1.14991e-13 	0 	0 	
0.645 1.20034e-13 	0 	0 	
0.655 2.52175e-14 	0 	0 	
0.665 -3.53055e-15 	0 	0 	
0.675 8.32175e-14 	0 	0 	
0.685 -1.16e-14 	0 	0 	
0.695 -2.72347e-14 	0 	0 	
0.705 6.55646e-15 	0 	0 	
0.715 -2.62262e-14 	0 	0 	
0.725 -7.31302e-14 	0 	0 	
0.735 6.50606e-14 	0 	0 	
0.745 -5.44693e-14 	0 	0 	
0.755 1.05913e-14 	0 	0 	
0.765 4.0348e-15 	0 	0 	
0.775 3.27826e-14 	0 	0 	
0.785 -9.93563e-14 	0 	0 	
0.795 9.98605e-14 	0 	0 	
0.805 2.32001e-14 	0 	0 	
0.815 -4.3878e-14 	0 	0 	
0.825 -6.0522e-14 	0 	0 	
0.835 -1.81565e-14 	0 	0 	
0.845 -8.57395e-15 	0 	0 	
0.855 -5.64871e-14 	0 	0 	
0.865 5.54782e-15 	0 	0 	
0.875 -5.0435e-14 	0 	0 	
0.885 1.23565e-13 	0 	0 	
0.895 2.37043e-14 	0 	0 	
0.905 4.28696e-14 	0 	0 	
0.915 -6.05204e-15 	0 	0 	
0.925 -1.23565e-13 	0 	0 	
0.935 -3.22785e-14 	0 	0 	
0.945 -3.68174e-14 	0 	0 	
0.955 -2.62261e-14 	0 	0 	
0.965 -9.98607e-14 	0 	0 	
0.975 8.06955e-14 	0 	0 	
0.985 6.55634e-15 	0 	0 	
0.995 -1.11965e-13 	0 	0 	
