0.005 -3.23301e-14 	0 	0 	
0.015 5.65775e-14 	0 	0 	
0.025 2.42475e-14 	0 	0 	
0.035 -1.21237e-13 	0 	0 	
0.045 -6.466e-14 	0 	0 	
0.055 -1.37402e-13 	0 	0 	
0.065 -2.42476e-14 	0 	0 	
0.075 4.84946e-14 	0 	0 	
0.085 7.27425e-14 	0 	0 	
0.095 1.21238e-13 	0 	0 	
0.105 1.6165e-14 	0 	0 	
0.115 1.61649e-14 	0 	0 	
0.125 8.89075e-14 	0 	0 	
0.135 6.466e-14 	0 	0 	
0.145 9.699e-14 	0 	0 	
0.155 5.65774e-14 	0 	0 	
0.165 -1.45485e-13 	0 	0 	
0.175 -3.23301e-14 	0 	0 	
0.185 -1.21237e-13 	0 	0 	
0.195 4.04125e-14 	0 	0 	
0.205 -3.233e-14 	0 	0 	
0.215 2.42474e-14 	0 	0 	
0.225 7.27421e-14 	0 	0 	
0.235 1.6165e-14 	0 	0 	
0.245 -1.05072e-13 	0 	0 	
0.255 -2.42475e-14 	0 	0 	
0.265 8.08256e-15 	0 	0 	
0.275 -1.77815e-13 	0 	0 	
0.285 1.6165e-14 	0 	0 	
0.295 -8.08251e-15 	0 	0 	
0.305 -9.69896e-14 	0 	0 	
0.315 -4.82269e-20 	5.38403e-30 	0 	
0.325 -6.46596e-14 	0 	0 	
0.335 2.53791e-12 	-5.38403e-30 	0 	
0.345 4.76078e-09 	0 	0 	
0.355 1.55064e-06 	-2.91634e-30 	0 	
0.365 0.000144537 	1.07681e-29 	0 	
0.375 0.00548438 	0 	0 	
0.385 0.0951525 	0 	0 	
0.395 0.843435 	0 	0 	
0.405 4.14921 	0 	0 	
0.415 12.751 	0 	0 	
0.425 27.911 	-9.74477e-31 	0 	
0.435 48.6768 	0 	0 	
0.445 72.966 	-1.96155e-30 	0 	
0.455 97.9471 	-2.14024e-30 	0 	
0.465 118.742 	-1.62603e-30 	0 	
0.475 128.767 	0 	0 	
0.485 130.194 	0 	0 	
0.495 130.186 	-6.77358e-31 	0 	
0.505 130.158 	-6.77793e-31 	0 	
0.515 130.137 	0 	0 	
0.525 130.118 	0 	0 	
0.535 130.103 	0 	0 	
0.545 130.087 	0 	0 	
0.555 130.07 	0 	0 	
0.565 130.031 	0 	0 	
0.575 129.689 	0 	0 	
0.585 126.649 	0 	0 	
0.595 108.019 	0 	0 	
0.605 46.4814 	0 	0 	
0.615 3.8662 	0 	0 	
0.625 0.119929 	0 	0 	
0.635 0.00198139 	0 	0 	
0.645 1.52242e-05 	0 	0 	
0.655 3.57335e-08 	0 	0 	
0.665 1.50698e-11 	0 	0 	
0.675 -2.42474e-14 	0 	0 	
0.685 8.48663e-14 	0 	0 	
0.695 -1.76288e-24 	0 	0 	
0.705 -6.06186e-15 	0 	0 	
0.715 1.81856e-14 	0 	0 	
0.725 3.03094e-14 	0 	0 	
0.735 -1.21237e-14 	0 	0 	
0.745 -1.81856e-14 	0 	0 	
0.755 9.09281e-14 	0 	0 	
0.765 1.39423e-13 	0 	0 	
0.775 1.63671e-13 	0 	0 	
0.785 3.03093e-14 	0 	0 	
0.795 3.03095e-14 	0 	0 	
0.805 5.45564e-14 	0 	0 	
0.815 -3.03093e-14 	0 	0 	
0.825 -1.33646e-21 	0 	0 	
0.835 7.27425e-14 	0 	0 	
0.845 3.63713e-14 	0 	0 	
0.855 -4.24331e-14 	0 	0 	
0.865 -6.06188e-14 	0 	0 	
0.875 -5.45568e-14 	0 	0 	
0.885 3.03093e-14 	0 	0 	
0.895 9.09281e-14 	0 	0 	
0.905 -1.21237e-14 	0 	0 	
0.915 1.81856e-14 	0 	0 	
0.925 4.84949e-14 	0 	0 	
0.935 -6.06186e-15 	0 	0 	
0.945 2.42476e-14 	0 	0 	
0.955 -2.42475e-14 	0 	0 	
0.965 -4.24331e-14 	0 	0 	
0.975 -5.45568e-14 	0 	0 	
0.985 -1.21238e-14 	0 	0 	
0.995 -2.42474e-14 	0 	0 	
