0.005 2.18198e-13 	0 	0 	
0.015 -8.52336e-14 	0 	0 	
0.025 1.70467e-14 	0 	0 	
0.035 -3.40957e-15 	0 	0 	
0.045 -4.09121e-14 	0 	0 	
0.055 1.02281e-13 	0 	0 	
0.065 -1.0228e-14 	0 	0 	
0.075 -1.70468e-14 	0 	0 	
0.085 1.12508e-13 	0 	0 	
0.095 -6.8187e-15 	0 	0 	
0.105 -5.11399e-14 	0 	0 	
0.115 5.45495e-14 	0 	0 	
0.125 -5.11399e-14 	0 	0 	
0.135 -1.19327e-13 	0 	0 	
0.145 6.47775e-14 	0 	0 	
0.155 8.86427e-14 	0 	0 	
0.165 6.81866e-14 	0 	0 	
0.175 2.49999e-19 	0 	0 	
0.185 8.86429e-14 	-1.04091e-29 	0 	
0.195 1.26146e-13 	0 	0 	
0.205 1.32965e-13 	0 	0 	
0.215 3.17069e-13 	0 	0 	
0.225 5.11403e-14 	0 	0 	
0.235 1.80695e-13 	0 	0 	
0.245 1.0228e-14 	0 	0 	
0.255 3.78436e-13 	-1.08823e-29 	0 	
0.265 1.17691e-11 	-5.44113e-30 	0 	
0.275 2.52121e-09 	0 	0 	
0.285 2.39077e-07 	0 	0 	
0.295 1.15197e-05 	0 	0 	
0.305 0.000320668 	0 	0 	
0.315 0.00540279 	0 	0 	
0.325 0.0559016 	0 	0 	
0.335 0.369638 	0 	0 	
0.345 1.62599 	0 	0 	
0.355 5.0248 	-5.03871e-30 	0 	
0.365 11.6371 	0 	0 	
0.375 21.6978 	0 	0 	
0.385 34.7001 	0 	0 	
0.395 49.8514 	-2.76639e-30 	0 	
0.405 66.3665 	0 	0 	
0.415 83.4721 	0 	0 	
0.425 100.205 	0 	0 	
0.435 114.972 	0 	0 	
0.445 125.251 	0 	0 	
0.455 129.486 	0 	0 	
0.465 130.173 	0 	0 	
0.475 130.181 	0 	0 	
0.485 130.16 	0 	0 	
0.495 130.144 	7.13543e-31 	0 	
0.505 130.131 	0 	0 	
0.515 130.119 	0 	0 	
0.525 130.106 	0 	0 	
0.535 130.09 	0 	0 	
0.545 130.065 	0 	0 	
0.555 -4946.48 	0 	0 	
0.565 -1.35588e+09 	0 	0 	
0.575 -5.95785e+14 	0 	0 	
0.585 -2.90886e+20 	0 	0 	
0.595 1.76659e+22 	0 	0 	
0.605 -3.14044e+25 	0 	0 	
0.615 -6.1592e+30 	0 	0 	
0.625 2.5885e+30 	0 	0 	
0.635 1.59877e+27 	0 	0 	
0.645 2.0772e+24 	0 	0 	
0.655 5.29411e+18 	0 	0 	
0.665 -2.03542e+13 	0 	0 	
0.675 4.34132e+07 	0 	0 	
0.685 3625.43 	0 	0 	
0.695 0.0126211 	0 	0 	
0.705 0.000275781 	0 	0 	
0.715 3.96821e-06 	0 	0 	
0.725 3.13771e-08 	0 	0 	
0.735 1.14119e-10 	0 	0 	
0.745 1.71319e-13 	0 	0 	
0.755 7.67101e-14 	0 	0 	
0.765 8.4381e-14 	0 	0 	
0.775 1.91775e-13 	0 	0 	
0.785 1.7899e-14 	0 	0 	
0.795 -2.3013e-14 	0 	0 	
0.805 3.0684e-14 	0 	0 	
0.815 -3.3241e-14 	0 	0 	
0.825 2.49992e-19 	0 	0 	
0.835 9.08434e-30 	0 	0 	
0.845 3.5798e-14 	0 	0 	
0.855 -2.55745e-15 	0 	0 	
0.865 3.5798e-14 	0 	0 	
0.875 6.3925e-14 	0 	0 	
0.885 -8.4381e-14 	0 	0 	
0.895 -2.8127e-14 	0 	0 	
0.905 -6.9039e-14 	0 	0 	
0.915 2.55735e-15 	0 	0 	
0.925 2.49994e-19 	0 	0 	
0.935 1.07394e-13 	0 	0 	
0.945 7.4153e-14 	0 	0 	
0.955 -4.34691e-14 	0 	0 	
0.965 2.55705e-15 	0 	0 	
0.975 5.11401e-14 	0 	0 	
0.985 -4.0912e-14 	0 	0 	
0.995 8.69384e-14 	0 	0 	
