0.005 8.86426e-14 	0 	0 	
0.015 1.70469e-14 	0 	0 	
0.025 -5.114e-14 	0 	0 	
0.035 2.38654e-14 	0 	0 	
0.045 5.04871e-29 	0 	0 	
0.055 -4.09117e-14 	0 	0 	
0.065 -2.72746e-14 	0 	0 	
0.075 -1.0228e-13 	0 	0 	
0.085 -2.72744e-14 	0 	0 	
0.095 -1.70469e-14 	0 	0 	
0.105 -8.86431e-14 	0 	0 	
0.115 1.09099e-13 	0 	0 	
0.125 -4.44325e-24 	0 	0 	
0.135 -1.32964e-13 	0 	0 	
0.145 2.38654e-14 	0 	0 	
0.155 6.8187e-14 	0 	0 	
0.165 -1.15917e-13 	0 	0 	
0.175 -1.70466e-14 	0 	0 	
0.185 -2.04561e-14 	-2.83884e-30 	0 	
0.195 8.52337e-14 	0 	0 	
0.205 1.5683e-13 	0 	0 	
0.215 -3.40948e-15 	0 	0 	
0.225 -5.11399e-14 	0 	0 	
0.235 1.63648e-13 	0 	0 	
0.245 1.15917e-13 	0 	0 	
0.255 4.09123e-14 	-2.60227e-30 	0 	
0.265 -6.47774e-14 	-1.5377e-30 	0 	
0.275 -5.114e-14 	0 	0 	
0.285 9.54618e-14 	0 	0 	
0.295 2.38656e-14 	0 	0 	
0.305 2.38654e-14 	0 	0 	
0.315 6.81868e-15 	0 	0 	
0.325 3.40932e-14 	0 	0 	
0.335 -2.38655e-14 	0 	0 	
0.345 4.09122e-14 	0 	0 	
0.355 3.40934e-15 	-1.18285e-30 	0 	
0.365 -1.15918e-13 	0 	0 	
0.375 -1.0228e-13 	0 	0 	
0.385 -2.04559e-14 	0 	0 	
0.395 -8.52337e-14 	0 	0 	
0.405 -6.13679e-14 	0 	0 	
0.415 4.0912e-14 	0 	0 	
0.425 -5.11401e-14 	0 	0 	
0.435 0.000445138 	0 	0 	
0.445 0.124179 	0 	0 	
0.455 3.16006 	0 	0 	
0.465 20.0927 	0 	0 	
0.475 57.9499 	0 	0 	
0.485 106.044 	0 	0 	
0.495 129.598 	7.15032e-31 	0 	
0.505 130.186 	0 	0 	
0.515 130.12 	0 	0 	
0.525 129.32 	0 	0 	
0.535 118.685 	0 	0 	
0.545 51.1947 	0 	0 	
0.555 1.52552 	0 	0 	
0.565 0.00304888 	0 	0 	
0.575 -6.3925e-14 	0 	0 	
0.585 2.55699e-14 	0 	0 	
0.595 1.02279e-14 	0 	0 	
0.605 -1.55977e-13 	0 	0 	
0.615 -5.11436e-15 	0 	0 	
0.625 -2.557e-14 	0 	0 	
0.635 7.1596e-14 	0 	0 	
0.645 2.557e-15 	0 	0 	
0.655 7.671e-15 	0 	0 	
0.665 2.30133e-14 	0 	0 	
0.675 7.33032e-24 	0 	0 	
0.685 9.7166e-14 	0 	0 	
0.695 3.32414e-14 	0 	0 	
0.705 3.3241e-14 	0 	0 	
0.715 -1.55977e-13 	0 	0 	
0.725 -2.557e-14 	0 	0 	
0.735 5.00002e-19 	0 	0 	
0.745 1.20179e-13 	0 	0 	
0.755 3.57979e-14 	0 	0 	
0.765 -8.1824e-14 	0 	0 	
0.775 8.81461e-25 	0 	0 	
0.785 -6.64821e-14 	0 	0 	
0.795 9.71665e-14 	0 	0 	
0.805 3.0684e-14 	0 	0 	
0.815 3.57977e-14 	0 	0 	
0.825 8.94952e-14 	0 	0 	
0.835 2.81269e-14 	0 	0 	
0.845 5.11401e-14 	0 	0 	
0.855 -2.8127e-14 	0 	0 	
0.865 5.11402e-15 	0 	0 	
0.875 -5.114e-14 	0 	0 	
0.885 -5.11401e-14 	0 	0 	
0.895 -5.00002e-20 	0 	0 	
0.905 -6.13684e-14 	0 	0 	
0.915 -3.06839e-14 	0 	0 	
0.925 -3.8355e-14 	0 	0 	
0.935 -2.0456e-14 	0 	0 	
0.945 1.78989e-14 	0 	0 	
0.955 4.85834e-14 	0 	0 	
0.965 3.0684e-14 	0 	0 	
0.975 2.557e-14 	0 	0 	
0.985 -7.9267e-14 	0 	0 	
0.995 7.41534e-14 	0 	0 	
