0.005 4.90141e-14 	0 	0 	
0.015 8.22944e-14 	0 	0 	
0.025 9.40508e-14 	0 	0 	
0.035 9.11117e-14 	0 	0 	
0.045 8.22944e-14 	0 	0 	
0.055 5.58427e-14 	0 	0 	
0.065 2.05736e-14 	0 	0 	
0.075 -8.81727e-15 	0 	0 	
0.085 -2.64518e-14 	0 	0 	
0.095 -2.05736e-14 	0 	0 	
0.105 -3.23299e-14 	0 	0 	
0.115 -7.93554e-14 	0 	0 	
0.125 -1.2932e-13 	0 	0 	
0.135 -1.79284e-13 	0 	0 	
0.145 -2.14553e-13 	-3.26305e-31 	0 	
0.155 -2.02797e-13 	0 	0 	
0.165 -1.64589e-13 	0 	0 	
0.175 -1.32259e-13 	0 	0 	
0.185 -8.52335e-14 	0 	0 	
0.195 -5.87815e-15 	0 	0 	
0.205 4.99645e-14 	0 	0 	
0.215 5.29036e-14 	0 	0 	
0.225 5.87817e-14 	0 	0 	
0.235 6.17208e-14 	6.52609e-31 	0 	
0.245 6.17208e-14 	0 	0 	
0.255 8.52334e-14 	0 	0 	
0.265 7.93553e-14 	0 	0 	
0.275 4.70254e-14 	0 	0 	
0.285 5.29036e-14 	0 	0 	
0.295 7.05381e-14 	0 	0 	
0.305 6.7599e-14 	0 	0 	
0.315 5.87817e-14 	0 	0 	
0.325 2.93909e-14 	0 	0 	
0.335 -2.93907e-14 	0 	0 	
0.345 -7.93551e-14 	0 	0 	
0.355 -7.64162e-14 	0 	0 	
0.365 -5.29036e-14 	0 	0 	
0.375 -5.29036e-14 	0 	0 	
0.385 -6.7599e-14 	0 	0 	
0.395 -7.34772e-14 	0 	0 	
0.405 1.45107 	0 	0 	
0.415 8.79937 	0 	0 	
0.425 24.8707 	0 	0 	
0.435 46.831 	0 	0 	
0.445 70.4419 	0 	0 	
0.455 92.8781 	0 	0 	
0.465 111.626 	0 	0 	
0.475 123.974 	0 	0 	
0.485 129.531 	0 	0 	
0.495 131.189 	0 	0 	
0.505 131.13 	0 	0 	
0.515 130.297 	0 	0 	
0.525 129.579 	0 	0 	
0.535 129.411 	0 	0 	
0.545 129.899 	0 	0 	
0.555 130.702 	0 	0 	
0.565 131.003 	0 	0 	
0.575 128.519 	-1.35336e-30 	0 	
0.585 114.363 	-5.1958e-31 	0 	
0.595 77.8779 	0 	0 	
0.605 32.3361 	0 	0 	
0.615 5.75365 	0 	0 	
0.625 -9.25812e-14 	0 	0 	
0.635 -9.69899e-14 	0 	0 	
0.645 -4.40863e-14 	0 	0 	
0.655 -2.2043e-15 	0 	0 	
0.665 -3.08604e-14 	0 	0 	
0.675 -4.62906e-14 	0 	0 	
0.685 1.54302e-14 	0 	0 	
0.695 6.39251e-14 	0 	0 	
0.705 3.96777e-14 	0 	0 	
0.715 2.42475e-14 	0 	0 	
0.725 8.15597e-14 	0 	0 	
0.735 1.34463e-13 	0 	0 	
0.745 1.03603e-13 	0 	0 	
0.755 3.30646e-14 	0 	0 	
0.765 -1.98388e-14 	0 	0 	
0.775 -4.1882e-14 	0 	0 	
0.785 -4.1882e-14 	0 	0 	
0.795 -4.84949e-14 	0 	0 	
0.805 -4.84949e-14 	0 	0 	
0.815 -2.64518e-14 	-4.89455e-31 	0 	
0.825 -6.61294e-15 	0 	0 	
0.835 1.32259e-14 	0 	0 	
0.845 3.5269e-14 	0 	0 	
0.855 5.06992e-14 	0 	0 	
0.865 6.17208e-14 	0 	0 	
0.875 3.30647e-14 	0 	0 	
0.885 -3.74733e-14 	0 	0 	
0.895 -7.27424e-14 	0 	0 	
0.905 -4.1882e-14 	0 	0 	
0.915 8.81725e-15 	0 	0 	
0.925 2.86561e-14 	0 	0 	
0.935 2.64518e-14 	0 	0 	
0.945 3.5269e-14 	0 	0 	
0.955 4.1882e-14 	0 	0 	
0.965 3.30648e-14 	0 	0 	
0.975 1.98389e-14 	0 	0 	
0.985 6.61295e-15 	0 	0 	
0.995 0 	0 	0 	
