0.005 4.90141e-14 	0 	0 	
0.015 8.22944e-14 	0 	0 	
0.025 9.99288e-14 	0 	0 	
0.035 9.11115e-14 	0 	0 	
0.045 3.52689e-14 	0 	0 	
0.055 -2.35127e-14 	0 	0 	
0.065 -2.93909e-14 	0 	0 	
0.075 -2.05736e-14 	0 	0 	
0.085 -2.64518e-14 	0 	0 	
0.095 -1.17563e-14 	0 	0 	
0.105 1.17563e-14 	0 	0 	
0.115 1.17563e-14 	0 	0 	
0.125 -1.17563e-14 	0 	0 	
0.135 -5.58426e-14 	0 	0 	
0.145 -9.99289e-14 	-5.71032e-30 	0 	
0.155 -1.26381e-13 	0 	0 	
0.165 -1.58711e-13 	0 	0 	
0.175 -1.96919e-13 	0 	0 	
0.185 -1.88102e-13 	0 	0 	
0.195 -1.38137e-13 	0 	0 	
0.205 -1.05807e-13 	0 	0 	
0.215 -9.99289e-14 	0 	0 	
0.225 -6.46599e-14 	0 	0 	
0.235 2.93905e-15 	1.14206e-29 	0 	
0.245 3.23299e-14 	0 	0 	
0.255 2.05736e-14 	0 	0 	
0.265 1.76345e-14 	0 	0 	
0.275 4.99644e-14 	0 	0 	
0.285 7.0538e-14 	0 	0 	
0.295 3.82081e-14 	0 	0 	
0.305 5.87818e-15 	0 	0 	
0.315 -2.93907e-15 	0 	0 	
0.325 2.9391e-15 	0 	0 	
0.335 8.81725e-15 	0 	0 	
0.345 -2.9391e-15 	0 	0 	
0.355 -1.46954e-14 	0 	0 	
0.365 0.778805 	0 	0 	
0.375 5.54218 	0 	0 	
0.385 17.006 	0 	0 	
0.395 33.4405 	0 	0 	
0.405 51.8973 	0 	0 	
0.415 70.9553 	0 	0 	
0.425 89.5502 	0 	0 	
0.435 106.245 	0 	0 	
0.445 118.966 	0 	0 	
0.455 126.476 	0 	0 	
0.465 129.799 	0 	0 	
0.475 130.722 	0 	0 	
0.485 130.502 	0 	0 	
0.495 129.99 	0 	0 	
0.505 129.685 	0 	0 	
0.515 129.721 	0 	0 	
0.525 130.02 	0 	0 	
0.535 130.441 	0 	0 	
0.545 130.685 	0 	0 	
0.555 130.677 	0 	0 	
0.565 130.47 	0 	0 	
0.575 129.925 	-3.38565e-30 	0 	
0.585 129.427 	-2.70999e-30 	0 	
0.595 129.508 	0 	0 	
0.605 129.513 	0 	0 	
0.615 129.237 	0 	0 	
0.625 127.243 	0 	0 	
0.635 114.72 	0 	0 	
0.645 81.0996 	0 	0 	
0.655 36.2686 	0 	0 	
0.665 7.22678 	0 	0 	
0.675 2.42475e-14 	0 	0 	
0.685 4.84949e-14 	0 	0 	
0.695 5.06993e-14 	0 	0 	
0.705 5.51079e-14 	0 	0 	
0.715 5.51079e-14 	0 	0 	
0.725 6.61295e-14 	0 	0 	
0.735 8.81728e-14 	0 	0 	
0.745 6.61295e-14 	0 	0 	
0.755 2.20431e-14 	0 	0 	
0.765 -1.32259e-14 	0 	0 	
0.775 -3.74734e-14 	0 	0 	
0.785 -5.06992e-14 	0 	0 	
0.795 -5.95165e-14 	0 	0 	
0.805 -4.1882e-14 	0 	0 	
0.815 -1.54302e-14 	-8.56548e-30 	0 	
0.825 -1.76345e-14 	0 	0 	
0.835 -3.30647e-14 	0 	0 	
0.845 -3.30647e-14 	0 	0 	
0.855 -4.40863e-15 	0 	0 	
0.865 2.42475e-14 	0 	0 	
0.875 8.81725e-15 	0 	0 	
0.885 -4.1882e-14 	0 	0 	
0.895 -7.93553e-14 	0 	0 	
0.905 -6.39251e-14 	0 	0 	
0.915 -2.86561e-14 	0 	0 	
0.925 -1.76345e-14 	0 	0 	
0.935 -2.17126e-25 	0 	0 	
0.945 5.06992e-14 	0 	0 	
0.955 1.1242e-13 	0 	0 	
0.965 1.2785e-13 	0 	0 	
0.975 9.25811e-14 	0 	0 	
0.985 6.61294e-14 	0 	0 	
0.995 4.89007e-14 	0 	0 	
