0.005 -2.9391e-14 	0 	0 	
0.015 2.05572e-28 	0 	0 	
0.025 -2.9391e-14 	0 	0 	
0.035 -5.87817e-14 	0 	0 	
0.045 -5.87817e-14 	0 	0 	
0.055 -7.34772e-14 	0 	0 	
0.065 2.93906e-14 	0 	0 	
0.075 4.40864e-14 	0 	0 	
0.085 1.02868e-13 	0 	0 	
0.095 5.8782e-14 	0 	0 	
0.105 7.34771e-14 	0 	0 	
0.115 1.32259e-13 	0 	0 	
0.125 1.17563e-13 	0 	0 	
0.135 1.76345e-13 	0 	0 	
0.145 2.20431e-13 	0 	0 	
0.155 1.61649e-13 	0 	0 	
0.165 2.49822e-13 	0 	0 	
0.175 1.91041e-13 	0 	0 	
0.185 1.76345e-13 	0 	0 	
0.195 4.40863e-14 	0 	0 	
0.205 -7.3477e-14 	0 	0 	
0.215 -4.40863e-14 	0 	0 	
0.225 -1.91041e-13 	0 	0 	
0.235 -1.6165e-13 	0 	0 	
0.245 -7.34771e-14 	0 	0 	
0.255 -1.02868e-13 	0 	0 	
0.265 8.81727e-14 	0 	0 	
0.275 5.57251e-11 	0 	0 	
0.285 5.9537e-09 	0 	0 	
0.295 3.56746e-07 	0 	0 	
0.305 1.28391e-05 	0 	0 	
0.315 0.000290361 	0 	0 	
0.325 0.00426174 	0 	0 	
0.335 0.0415555 	0 	0 	
0.345 0.274224 	0 	0 	
0.355 1.25043 	0 	0 	
0.365 4.07421 	0 	0 	
0.375 9.98724 	0 	0 	
0.385 19.5988 	0 	0 	
0.395 32.6506 	0 	0 	
0.405 48.3757 	0 	0 	
0.415 65.8645 	0 	0 	
0.425 84.1394 	0 	0 	
0.435 101.911 	0 	0 	
0.445 117.045 	0 	0 	
0.455 126.589 	0 	0 	
0.465 129.822 	0 	0 	
0.475 130.198 	0 	0 	
0.485 130.183 	0 	0 	
0.495 130.162 	0 	0 	
0.505 130.145 	0 	0 	
0.515 130.132 	0 	0 	
0.525 130.121 	0 	0 	
0.535 130.111 	0 	0 	
0.545 130.102 	0 	0 	
0.555 130.093 	0 	0 	
0.565 130.084 	0 	0 	
0.575 130.076 	0 	0 	
0.585 130.066 	0 	0 	
0.595 130.054 	0 	0 	
0.605 130.017 	0 	0 	
0.615 129.784 	0 	0 	
0.625 128.269 	0 	0 	
0.635 120.195 	0 	0 	
0.645 88.1233 	0 	0 	
0.655 27.427 	0 	0 	
0.665 2.60285 	0 	0 	
0.675 0.149519 	0 	0 	
0.685 0.00649519 	0 	0 	
0.695 0.000204458 	0 	0 	
0.705 4.36848e-06 	0 	0 	
0.715 5.91305e-08 	0 	0 	
0.725 4.67777e-10 	0 	0 	
0.735 1.75243e-12 	0 	0 	
0.745 -1.10216e-13 	0 	0 	
0.755 -8.81725e-14 	0 	0 	
0.765 -1.21237e-13 	0 	0 	
0.775 -1.87367e-13 	0 	0 	
0.785 -4.40863e-14 	0 	0 	
0.795 -1.4328e-13 	0 	0 	
0.805 -5.51079e-14 	0 	0 	
0.815 -5.51079e-14 	0 	0 	
0.825 -3.30647e-14 	0 	0 	
0.835 3.30645e-14 	0 	0 	
0.845 -1.10216e-14 	0 	0 	
0.855 8.81725e-14 	0 	0 	
0.865 8.81725e-14 	0 	0 	
0.875 1.10216e-14 	0 	0 	
0.885 2.20432e-14 	0 	0 	
0.895 2.20431e-14 	0 	0 	
0.905 6.61295e-14 	0 	0 	
0.915 1.10215e-14 	0 	0 	
0.925 2.20432e-14 	0 	0 	
0.935 7.7151e-14 	0 	0 	
0.945 2.20432e-14 	0 	0 	
0.955 8.81724e-14 	0 	0 	
0.965 2.20432e-14 	0 	0 	
0.975 7.7151e-14 	0 	0 	
0.985 -1.10216e-14 	0 	0 	
0.995 -2.20431e-14 	0 	0 	
