0.005 5.19335e-14 	0 	0 	
0.015 -4.85832e-14 	0 	0 	
0.025 -8.37625e-15 	0 	0 	
0.035 1.17506e-25 	0 	0 	
0.045 -6.19854e-14 	0 	0 	
0.055 1.67552e-15 	0 	0 	
0.065 1.00517e-14 	0 	0 	
0.075 7.53876e-14 	0 	0 	
0.085 -1.8428e-14 	0 	0 	
0.095 1.34022e-14 	0 	0 	
0.105 -1.28997e-13 	0 	0 	
0.115 -1.50774e-14 	0 	0 	
0.125 -2.51295e-14 	0 	0 	
0.135 -6.03103e-14 	0 	0 	
0.145 -9.21404e-14 	0 	0 	
0.155 -6.36603e-14 	0 	0 	
0.165 6.03101e-14 	0 	0 	
0.175 8.37635e-15 	0 	0 	
0.185 1.17272e-14 	0 	0 	
0.195 -9.88412e-14 	0 	0 	
0.205 9.04649e-14 	0 	0 	
0.215 -5.02595e-15 	0 	0 	
0.225 -5.02584e-14 	0 	0 	
0.235 6.36609e-14 	0 	0 	
0.245 -3.01553e-14 	0 	0 	
0.255 -7.87379e-14 	0 	0 	
0.265 3.51809e-14 	0 	0 	
0.275 5.86346e-14 	0 	0 	
0.285 -4.02068e-14 	0 	0 	
0.295 1.32347e-13 	0 	0 	
0.305 -5.02584e-15 	0 	0 	
0.315 4.18816e-14 	0 	0 	
0.325 8.37642e-14 	0 	0 	
0.335 -1.54126e-13 	0 	0 	
0.345 -1.45749e-13 	0 	0 	
0.355 -1.00516e-14 	0 	0 	
0.365 3.51809e-14 	0 	0 	
0.375 -1.08893e-13 	0 	0 	
0.385 -6.70092e-15 	0 	0 	
0.395 9.54908e-14 	0 	0 	
0.405 -1.00517e-14 	0 	0 	
0.415 -3.68562e-14 	0 	0 	
0.425 7.53876e-14 	0 	0 	
0.435 -2.51292e-14 	0 	0 	
0.445 -1.10569e-13 	0 	0 	
0.455 2.05669e-25 	0 	0 	
0.465 0.0121358 	0 	0 	
0.475 3.87904 	0 	0 	
0.485 39.1304 	0 	0 	
0.495 112.603 	0 	0 	
0.505 130.107 	0 	0 	
0.515 117.678 	0 	0 	
0.525 34.1264 	0 	0 	
0.535 0.061229 	0 	0 	
0.545 -1.6334e-14 	0 	0 	
0.555 -2.63857e-14 	0 	0 	
0.565 -7.16181e-14 	0 	0 	
0.575 -7.19632e-24 	0 	0 	
0.585 -5.02585e-14 	0 	0 	
0.595 -3.76939e-15 	0 	0 	
0.605 9.92606e-14 	0 	0 	
0.615 1.38209e-14 	0 	0 	
0.625 -8.79523e-14 	0 	0 	
0.635 4.9002e-14 	0 	0 	
0.645 -2.63856e-14 	0 	0 	
0.655 -8.16699e-14 	0 	0 	
0.665 -7.16183e-14 	0 	0 	
0.675 -6.91054e-14 	0 	0 	
0.685 -1.3821e-14 	0 	0 	
0.695 2.51292e-14 	0 	0 	
0.705 8.79538e-15 	0 	0 	
0.715 2.51306e-15 	0 	0 	
0.725 3.14116e-14 	0 	0 	
0.735 2.38725e-14 	0 	0 	
0.745 7.4131e-14 	0 	0 	
0.755 5.65405e-14 	0 	0 	
0.765 4.27197e-14 	0 	0 	
0.775 3.14116e-14 	0 	0 	
0.785 -4.77455e-14 	0 	0 	
0.795 6.28227e-15 	0 	0 	
0.805 5.77973e-14 	0 	0 	
0.815 1.38211e-14 	0 	0 	
0.825 5.65406e-14 	0 	0 	
0.835 -4.77456e-14 	0 	0 	
0.845 5.90537e-14 	0 	0 	
0.855 2.51292e-14 	0 	0 	
0.865 -1.25645e-15 	0 	0 	
0.875 -1.06799e-13 	0 	0 	
0.885 -6.03104e-14 	0 	0 	
0.895 -5.77971e-14 	0 	0 	
0.905 -1.75904e-14 	0 	0 	
0.915 -2.51292e-15 	0 	0 	
0.925 3.14116e-14 	0 	0 	
0.935 -7.16181e-14 	0 	0 	
0.945 -2.51292e-14 	0 	0 	
0.955 1.8847e-14 	0 	0 	
0.965 -3.14118e-14 	0 	0 	
0.975 6.28238e-15 	0 	0 	
0.985 -3.64374e-14 	0 	0 	
0.995 -1.18107e-13 	0 	0 	
