0.005 5.78314e-14 	0 	0 	
0.015 1.08746e-13 	0 	0 	
0.025 1.32259e-13 	0 	0 	
0.035 1.41076e-13 	0 	0 	
0.045 1.35198e-13 	0 	0 	
0.055 8.81725e-14 	0 	0 	
0.065 3.5269e-14 	0 	0 	
0.075 -2.9391e-15 	0 	0 	
0.085 -5.87816e-14 	0 	0 	
0.095 -1.14624e-13 	0 	0 	
0.105 -1.55771e-13 	0 	0 	
0.115 -1.79284e-13 	0 	0 	
0.125 -1.85162e-13 	0 	0 	
0.135 -2.02797e-13 	0 	0 	
0.145 -2.29249e-13 	-1.79468e-30 	0 	
0.155 -2.43944e-13 	1.63152e-30 	0 	
0.165 -2.5864e-13 	0 	0 	
0.175 -2.55701e-13 	0 	0 	
0.185 -1.70467e-13 	0 	0 	
0.195 -4.11472e-14 	0 	0 	
0.205 3.23299e-14 	0 	0 	
0.215 5.29035e-14 	0 	0 	
0.225 8.52334e-14 	1.63152e-31 	0 	
0.235 1.11685e-13 	1.0768e-29 	0 	
0.245 9.69898e-14 	6.52609e-31 	0 	
0.255 8.81725e-14 	0 	0 	
0.265 8.81725e-14 	0 	0 	
0.275 7.34771e-14 	0 	0 	
0.285 7.93552e-14 	0 	0 	
0.295 1.14624e-13 	0 	0 	
0.305 1.23441e-13 	0 	0 	
0.315 9.11116e-14 	0 	0 	
0.325 5.58427e-14 	0 	0 	
0.335 1.46954e-14 	0 	0 	
0.345 -4.70254e-14 	0 	0 	
0.355 0.0510632 	0 	0 	
0.365 1.89818 	0 	0 	
0.375 9.0609 	0 	0 	
0.385 22.384 	0 	0 	
0.395 39.2764 	0 	0 	
0.405 57.4476 	0 	0 	
0.415 75.7335 	0 	0 	
0.425 93.056 	0 	0 	
0.435 108.099 	0 	0 	
0.445 119.515 	0 	0 	
0.455 126.298 	0 	0 	
0.465 129.106 	0 	0 	
0.475 130.076 	0 	0 	
0.485 130.381 	0 	0 	
0.495 130.236 	0 	0 	
0.505 129.961 	0 	0 	
0.515 129.834 	0 	0 	
0.525 129.974 	0 	0 	
0.535 130.33 	0 	0 	
0.545 130.657 	0 	0 	
0.555 130.715 	0 	0 	
0.565 130.451 	0 	0 	
0.575 129.942 	-2.6964e-30 	0 	
0.585 129.513 	-1.86495e-30 	0 	
0.595 129.451 	0 	0 	
0.605 129.623 	0 	0 	
0.615 129.617 	0 	0 	
0.625 128.552 	0 	0 	
0.635 121.813 	0 	0 	
0.645 97.8853 	0 	0 	
0.655 54.6144 	0 	0 	
0.665 16.1508 	0 	0 	
0.675 1.40486 	0 	0 	
0.685 2.86561e-14 	0 	0 	
0.695 4.84949e-14 	0 	0 	
0.705 3.5269e-14 	0 	0 	
0.715 1.32259e-14 	0 	0 	
0.725 2.64518e-14 	0 	0 	
0.735 5.95165e-14 	0 	0 	
0.745 6.61294e-14 	0 	0 	
0.755 4.40863e-14 	0 	0 	
0.765 3.08604e-14 	0 	0 	
0.775 3.74733e-14 	0 	0 	
0.785 3.96777e-14 	0 	0 	
0.795 2.42475e-14 	0 	0 	
0.805 1.76345e-14 	0 	0 	
0.815 2.20431e-14 	-8.56548e-30 	0 	
0.825 1.32259e-14 	0 	0 	
0.835 -2.20431e-15 	0 	0 	
0.845 -1.76345e-14 	0 	0 	
0.855 -3.30647e-14 	0 	0 	
0.865 -3.96777e-14 	0 	0 	
0.875 -5.51078e-14 	0 	0 	
0.885 -7.71509e-14 	0 	0 	
0.895 -7.05381e-14 	0 	0 	
0.905 -3.74734e-14 	0 	0 	
0.915 -1.10216e-14 	0 	0 	
0.925 -1.32259e-14 	0 	0 	
0.935 -8.81725e-15 	0 	0 	
0.945 3.5269e-14 	0 	0 	
0.955 9.25812e-14 	0 	0 	
0.965 1.23442e-13 	0 	0 	
0.975 1.19033e-13 	0 	0 	
0.985 9.91942e-14 	0 	0 	
0.995 6.7281e-14 	0 	0 	
