0.005 -2.35127e-14 	0 	0 	
0.015 4.70256e-14 	0 	0 	
0.025 -2.35126e-14 	0 	0 	
0.035 -5.8495e-25 	0 	0 	
0.045 -2.35127e-14 	0 	0 	
0.055 -2.35127e-14 	0 	0 	
0.065 -1.16977e-24 	0 	0 	
0.075 2.35126e-14 	0 	0 	
0.085 -2.35127e-14 	0 	0 	
0.095 5.22087e-30 	0 	0 	
0.105 -2.35125e-14 	0 	0 	
0.115 -4.70254e-14 	0 	0 	
0.125 -7.0538e-14 	0 	0 	
0.135 4.7025e-14 	0 	0 	
0.145 -4.70254e-14 	0 	0 	
0.155 -2.35127e-14 	0 	0 	
0.165 -5.85024e-25 	0 	0 	
0.175 -4.70254e-14 	0 	0 	
0.185 -9.40507e-14 	0 	0 	
0.195 -2.35127e-14 	0 	0 	
0.205 -2.35127e-14 	1.63152e-30 	0 	
0.215 4.70254e-14 	0 	0 	
0.225 1.17563e-13 	0 	0 	
0.235 -7.05383e-14 	0 	0 	
0.245 -2.35127e-14 	0 	0 	
0.255 -4.70254e-14 	0 	0 	
0.265 -4.70255e-14 	0 	0 	
0.275 5.84217e-25 	0 	0 	
0.285 -9.40506e-14 	0 	0 	
0.295 -2.35126e-14 	0 	0 	
0.305 4.70254e-14 	0 	0 	
0.315 2.35127e-14 	0 	0 	
0.325 -2.35127e-14 	0 	0 	
0.335 -9.40507e-14 	0 	0 	
0.345 2.08835e-29 	0 	0 	
0.355 7.0538e-14 	0 	0 	
0.365 -2.35127e-14 	0 	0 	
0.375 4.70253e-14 	0 	0 	
0.385 4.70254e-14 	0 	0 	
0.395 2.35126e-14 	0 	0 	
0.405 -4.70253e-14 	0 	0 	
0.415 -2.35127e-14 	0 	0 	
0.425 2.35127e-14 	0 	0 	
0.435 7.0538e-14 	0 	0 	
0.445 -2.33061e-24 	0 	0 	
0.455 0.00110786 	0 	0 	
0.465 0.265518 	0 	0 	
0.475 6.32825 	0 	0 	
0.485 39.4334 	0 	0 	
0.495 106.777 	0 	0 	
0.505 129.731 	-2.69569e-31 	0 	
0.515 114.072 	5.2045e-31 	0 	
0.525 41.3881 	-1.26365e-30 	0 	
0.535 1.59201 	-6.0739e-31 	0 	
0.545 0.00473422 	-6.11805e-31 	0 	
0.555 -1.76345e-14 	0 	0 	
0.565 1.76345e-14 	0 	0 	
0.575 7.05381e-14 	0 	0 	
0.585 -1.76344e-14 	0 	0 	
0.595 -1.76345e-14 	0 	0 	
0.605 1.05807e-13 	0 	0 	
0.615 3.5269e-14 	0 	0 	
0.625 -3.5269e-14 	0 	0 	
0.635 -7.0538e-14 	0 	0 	
0.645 -4.36187e-25 	0 	0 	
0.655 1.76345e-14 	0 	0 	
0.665 3.5269e-14 	0 	0 	
0.675 1.76345e-14 	0 	0 	
0.685 1.76344e-14 	0 	0 	
0.695 -8.81725e-14 	0 	0 	
0.705 3.5269e-14 	0 	0 	
0.715 4.35418e-25 	0 	0 	
0.725 7.0538e-14 	0 	0 	
0.735 -3.5269e-14 	0 	0 	
0.745 -3.5269e-14 	0 	0 	
0.755 1.76345e-14 	-6.11821e-31 	0 	
0.765 5.29036e-14 	0 	0 	
0.775 1.76344e-14 	0 	0 	
0.785 1.76345e-14 	0 	0 	
0.795 1.05807e-13 	-6.11821e-31 	0 	
0.805 8.81725e-14 	-6.11821e-31 	0 	
0.815 1.76345e-14 	0 	0 	
0.825 1.76345e-14 	0 	0 	
0.835 -8.81725e-14 	0 	0 	
0.845 5.29035e-14 	0 	0 	
0.855 1.76345e-14 	0 	0 	
0.865 7.0538e-14 	0 	0 	
0.875 7.05381e-14 	0 	0 	
0.885 1.76345e-14 	0 	0 	
0.895 3.5269e-14 	0 	0 	
0.905 8.81725e-14 	0 	0 	
0.915 3.5269e-14 	0 	0 	
0.925 1.76345e-14 	0 	0 	
0.935 -7.0538e-14 	0 	0 	
0.945 1.76345e-14 	0 	0 	
0.955 5.29035e-14 	0 	0 	
0.965 5.29035e-14 	0 	0 	
0.975 -7.0538e-14 	0 	0 	
0.985 -1.05807e-13 	0 	0 	
0.995 5.29034e-14 	0 	0 	
