0.005 8.81728e-14 	0 	0 	
0.015 2.93907e-14 	0 	0 	
0.025 1.02868e-13 	0 	0 	
0.035 -8.81722e-14 	0 	0 	
0.045 1.30522e-29 	0 	0 	
0.055 -4.40863e-14 	0 	0 	
0.065 1.46954e-13 	0 	0 	
0.075 1.17564e-13 	0 	0 	
0.085 1.46954e-14 	0 	0 	
0.095 -1.02868e-13 	0 	0 	
0.105 -7.3477e-14 	0 	0 	
0.115 -4.4086e-14 	0 	0 	
0.125 5.87817e-14 	0 	0 	
0.135 2.93908e-14 	0 	0 	
0.145 1.32259e-13 	0 	0 	
0.155 4.40863e-14 	0 	0 	
0.165 1.46954e-13 	0 	0 	
0.175 1.02868e-13 	0 	0 	
0.185 1.82731e-24 	0 	0 	
0.195 -1.46954e-14 	0 	0 	
0.205 -5.87818e-14 	0 	0 	
0.215 -8.81725e-14 	0 	0 	
0.225 1.46953e-14 	0 	0 	
0.235 -2.50004e-19 	0 	0 	
0.245 -1.82575e-24 	0 	0 	
0.255 -1.46953e-14 	0 	0 	
0.265 -1.02868e-13 	0 	0 	
0.275 -1.32259e-13 	0 	0 	
0.285 -7.34773e-14 	0 	0 	
0.295 -1.02868e-13 	0 	0 	
0.305 1.46954e-14 	0 	0 	
0.315 5.87817e-14 	0 	0 	
0.325 3.25005e-19 	0 	0 	
0.335 2.93912e-14 	0 	0 	
0.345 -9.99982e-20 	0 	0 	
0.355 7.3477e-14 	0 	0 	
0.365 -5.87817e-14 	0 	0 	
0.375 -7.34771e-14 	0 	0 	
0.385 1.46953e-14 	0 	0 	
0.395 7.34769e-14 	0 	0 	
0.405 -5.87818e-14 	0 	0 	
0.415 1.46954e-14 	0 	0 	
0.425 -1.46954e-13 	0 	0 	
0.435 0.000217731 	0 	0 	
0.445 0.0530021 	0 	0 	
0.455 1.62206 	0 	0 	
0.465 13.1412 	0 	0 	
0.475 45.6413 	0 	0 	
0.485 94.9846 	0 	0 	
0.495 128.092 	0 	0 	
0.505 130.194 	0 	0 	
0.515 130.036 	0 	0 	
0.525 126.899 	0 	0 	
0.535 96.9218 	0 	0 	
0.545 20.7093 	0 	0 	
0.555 0.459423 	0 	0 	
0.565 0.00124093 	0 	0 	
0.575 -2.20432e-14 	0 	0 	
0.585 -3.30648e-14 	0 	0 	
0.595 -1.21237e-13 	0 	0 	
0.605 5.51078e-14 	0 	0 	
0.615 1.32259e-13 	0 	0 	
0.625 9.91942e-14 	0 	0 	
0.635 -3.30648e-14 	0 	0 	
0.645 -2.72628e-24 	0 	0 	
0.655 -8.81726e-14 	0 	0 	
0.665 3.30648e-14 	0 	0 	
0.675 -1.10216e-14 	0 	0 	
0.685 1.50003e-19 	0 	0 	
0.695 4.40863e-14 	0 	0 	
0.705 2.20432e-14 	0 	0 	
0.715 -3.30648e-14 	0 	0 	
0.725 -4.40863e-14 	0 	0 	
0.735 -6.61294e-14 	0 	0 	
0.745 -2.20433e-14 	0 	0 	
0.755 5.51079e-14 	0 	0 	
0.765 -5.51078e-14 	0 	0 	
0.775 -1.74997e-19 	0 	0 	
0.785 -6.61293e-14 	0 	0 	
0.795 -1.10216e-13 	0 	0 	
0.805 -5.51079e-14 	0 	0 	
0.815 -4.40863e-14 	0 	0 	
0.825 1.10216e-14 	0 	0 	
0.835 3.30647e-14 	0 	0 	
0.845 8.81725e-14 	0 	0 	
0.855 5.51078e-14 	0 	0 	
0.865 6.61295e-14 	0 	0 	
0.875 -1.10216e-14 	0 	0 	
0.885 -2.20432e-14 	0 	0 	
0.895 1.10216e-14 	0 	0 	
0.905 -5.51079e-14 	0 	0 	
0.915 -6.61295e-14 	0 	0 	
0.925 -4.40862e-14 	0 	0 	
0.935 -2.20431e-14 	0 	0 	
0.945 2.20433e-14 	0 	0 	
0.955 6.61295e-14 	0 	0 	
0.965 5.51079e-14 	0 	0 	
0.975 8.81726e-14 	0 	0 	
0.985 2.2043e-14 	0 	0 	
0.995 1.10216e-14 	0 	0 	
