0.005 6.07704e-14 	0 	0 	
0.015 1.17563e-13 	0 	0 	
0.025 1.41076e-13 	0 	0 	
0.035 1.44015e-13 	0 	0 	
0.045 1.32259e-13 	0 	0 	
0.055 7.93552e-14 	0 	0 	
0.065 2.05736e-14 	0 	0 	
0.075 -1.17563e-14 	0 	0 	
0.085 -4.70254e-14 	0 	0 	
0.095 -9.9929e-14 	0 	0 	
0.105 -1.6165e-13 	0 	0 	
0.115 -1.91041e-13 	0 	0 	
0.125 -1.85162e-13 	0 	0 	
0.135 -1.99858e-13 	0 	0 	
0.145 -2.29249e-13 	-1.79468e-30 	0 	
0.155 -2.41006e-13 	1.63152e-30 	0 	
0.165 -2.46883e-13 	0 	0 	
0.175 -2.46883e-13 	0 	0 	
0.185 -1.9398e-13 	0 	0 	
0.195 -9.11117e-14 	0 	0 	
0.205 -2.9391e-15 	0 	0 	
0.215 4.40863e-14 	0 	0 	
0.225 8.52334e-14 	1.63152e-31 	0 	
0.235 1.11685e-13 	1.14206e-29 	0 	
0.245 9.99289e-14 	6.52609e-31 	0 	
0.255 9.40507e-14 	0 	0 	
0.265 9.40507e-14 	0 	0 	
0.275 8.52335e-14 	0 	0 	
0.285 9.99289e-14 	0 	0 	
0.295 1.26381e-13 	0 	0 	
0.305 1.23442e-13 	0 	0 	
0.315 9.69899e-14 	0 	0 	
0.325 4.99645e-14 	0 	0 	
0.335 -1.17563e-14 	0 	0 	
0.345 -6.75989e-14 	0 	0 	
0.355 0.883217 	0 	0 	
0.365 5.70011 	0 	0 	
0.375 16.6665 	0 	0 	
0.385 32.0204 	0 	0 	
0.395 49.1333 	0 	0 	
0.405 66.7526 	0 	0 	
0.415 84 	0 	0 	
0.425 99.8614 	0 	0 	
0.435 113.106 	0 	0 	
0.445 122.614 	0 	0 	
0.455 127.746 	0 	0 	
0.465 129.433 	0 	0 	
0.475 129.928 	0 	0 	
0.485 130.276 	0 	0 	
0.495 130.361 	0 	0 	
0.505 130.2 	0 	0 	
0.515 129.951 	0 	0 	
0.525 129.85 	0 	0 	
0.535 130.023 	0 	0 	
0.545 130.382 	0 	0 	
0.555 130.654 	0 	0 	
0.565 130.661 	0 	0 	
0.575 130.412 	-2.67564e-30 	0 	
0.585 129.969 	-1.86169e-30 	0 	
0.595 129.587 	0 	0 	
0.605 129.495 	0 	0 	
0.615 129.537 	0 	0 	
0.625 129.399 	0 	0 	
0.635 127.982 	0 	0 	
0.645 119.348 	0 	0 	
0.655 91.8205 	0 	0 	
0.665 47.4783 	0 	0 	
0.675 12.353 	0 	0 	
0.685 0.703628 	0 	0 	
0.695 5.06992e-14 	0 	0 	
0.705 2.42475e-14 	0 	0 	
0.715 8.81725e-15 	0 	0 	
0.725 2.64518e-14 	0 	0 	
0.735 5.95165e-14 	0 	0 	
0.745 6.61294e-14 	0 	0 	
0.755 4.40863e-14 	0 	0 	
0.765 3.08604e-14 	0 	0 	
0.775 3.74733e-14 	0 	0 	
0.785 3.96777e-14 	0 	0 	
0.795 2.20432e-14 	0 	0 	
0.805 1.10216e-14 	0 	0 	
0.815 1.54302e-14 	-9.05493e-30 	0 	
0.825 1.10216e-14 	0 	0 	
0.835 5.43316e-26 	0 	0 	
0.845 -1.32259e-14 	0 	0 	
0.855 -2.86561e-14 	0 	0 	
0.865 -3.5269e-14 	0 	0 	
0.875 -5.29035e-14 	0 	0 	
0.885 -7.71509e-14 	0 	0 	
0.895 -6.61294e-14 	0 	0 	
0.905 -2.86561e-14 	0 	0 	
0.915 -6.61295e-15 	0 	0 	
0.925 -1.32259e-14 	0 	0 	
0.935 -4.40863e-15 	0 	0 	
0.945 4.8495e-14 	0 	0 	
0.955 1.05807e-13 	0 	0 	
0.965 1.27851e-13 	0 	0 	
0.975 1.19033e-13 	0 	0 	
0.985 9.91942e-14 	0 	0 	
0.995 6.7281e-14 	0 	0 	
