0.005 5.84971e-25 	0 	0 	
0.015 4.70256e-14 	0 	0 	
0.025 -2.35127e-14 	0 	0 	
0.035 -2.35126e-14 	0 	0 	
0.045 -2.35126e-14 	0 	0 	
0.055 4.70253e-14 	0 	0 	
0.065 -2.35127e-14 	0 	0 	
0.075 4.70254e-14 	0 	0 	
0.085 2.35127e-14 	0 	0 	
0.095 7.05381e-14 	0 	0 	
0.105 7.0538e-14 	0 	0 	
0.115 -7.05381e-14 	0 	0 	
0.125 -2.35127e-14 	0 	0 	
0.135 -5.8525e-25 	0 	0 	
0.145 2.3513e-14 	0 	0 	
0.155 -4.70253e-14 	0 	0 	
0.165 -2.35127e-14 	0 	0 	
0.175 -5.84748e-25 	0 	0 	
0.185 -7.05381e-14 	0 	0 	
0.195 -1.17564e-13 	0 	0 	
0.205 2.35127e-14 	6.19977e-30 	0 	
0.215 7.0538e-14 	0 	0 	
0.225 4.70254e-14 	0 	0 	
0.235 5.84194e-25 	0 	0 	
0.245 -9.40507e-14 	0 	0 	
0.255 7.05381e-14 	0 	0 	
0.265 -1.17563e-13 	0 	0 	
0.275 -1.17563e-13 	0 	0 	
0.285 -7.0538e-14 	0 	0 	
0.295 -9.40508e-14 	0 	0 	
0.305 2.35127e-14 	0 	0 	
0.315 -4.70253e-14 	0 	0 	
0.325 4.70254e-14 	0 	0 	
0.335 7.05383e-14 	0 	0 	
0.345 1.27509e-10 	0 	0 	
0.355 2.53872e-08 	0 	0 	
0.365 2.29662e-06 	0 	0 	
0.375 0.000106956 	0 	0 	
0.385 0.00276838 	0 	0 	
0.395 0.0417783 	0 	0 	
0.405 0.379251 	0 	0 	
0.415 2.1327 	0 	0 	
0.425 7.8028 	0 	0 	
0.435 20.0876 	0 	0 	
0.445 39.8084 	0 	0 	
0.455 65.4792 	0 	0 	
0.465 93.658 	0 	0 	
0.475 117.727 	0 	0 	
0.485 128.901 	0 	0 	
0.495 130.221 	0 	0 	
0.505 130.193 	-4.94009e-31 	0 	
0.515 130.159 	1.13697e-30 	0 	
0.525 130.129 	-2.00062e-30 	0 	
0.535 130.096 	-8.14623e-31 	0 	
0.545 129.996 	-1.01309e-30 	0 	
0.555 129.176 	0 	0 	
0.565 123.722 	0 	0 	
0.575 100.123 	9.05933e-31 	0 	
0.585 45.7788 	0 	0 	
0.595 7.38746 	0 	0 	
0.605 0.568625 	0 	0 	
0.615 0.0278222 	0 	0 	
0.625 0.000855472 	0 	0 	
0.635 1.53914e-05 	0 	0 	
0.645 1.47452e-07 	0 	0 	
0.655 6.56162e-10 	0 	0 	
0.665 1.05807e-12 	0 	0 	
0.675 1.76345e-14 	0 	0 	
0.685 7.0538e-14 	0 	0 	
0.695 -1.76344e-14 	0 	0 	
0.705 3.5269e-14 	0 	0 	
0.715 -1.76345e-14 	0 	0 	
0.725 1.76345e-14 	0 	0 	
0.735 -1.05807e-13 	0 	0 	
0.745 -1.76345e-14 	0 	0 	
0.755 -3.5269e-14 	-2.32492e-30 	0 	
0.765 -7.0538e-14 	0 	0 	
0.775 -3.5269e-14 	0 	0 	
0.785 3.5269e-14 	0 	0 	
0.795 3.5269e-14 	-2.32492e-30 	0 	
0.805 5.29035e-14 	-2.32492e-30 	0 	
0.815 -3.5269e-14 	0 	0 	
0.825 -7.0538e-14 	0 	0 	
0.835 5.29035e-14 	0 	0 	
0.845 -1.76345e-14 	0 	0 	
0.855 1.76346e-14 	0 	0 	
0.865 5.29035e-14 	0 	0 	
0.875 1.73855e-24 	0 	0 	
0.885 1.76345e-14 	0 	0 	
0.895 -1.87034e-29 	0 	0 	
0.905 -1.76345e-14 	0 	0 	
0.915 1.23442e-13 	0 	0 	
0.925 -1.23441e-13 	0 	0 	
0.935 -1.76345e-14 	0 	0 	
0.945 3.5269e-14 	0 	0 	
0.955 3.5269e-14 	0 	0 	
0.965 1.76345e-14 	0 	0 	
0.975 -3.5269e-14 	0 	0 	
0.985 1.76345e-14 	0 	0 	
0.995 4.3384e-25 	0 	0 	
