0.005 -4.70254e-14 	0 	0 	
0.015 1.75479e-24 	0 	0 	
0.025 -2.35127e-14 	0 	0 	
0.035 -7.05383e-14 	0 	0 	
0.045 -4.70253e-14 	0 	0 	
0.055 2.35127e-14 	0 	0 	
0.065 -4.70254e-14 	0 	0 	
0.075 4.70253e-14 	0 	0 	
0.085 -4.70254e-14 	0 	0 	
0.095 4.70253e-14 	0 	0 	
0.105 1.41076e-13 	0 	0 	
0.115 2.35127e-14 	0 	0 	
0.125 4.70253e-14 	0 	0 	
0.135 -4.70254e-14 	0 	0 	
0.145 -1.17002e-24 	0 	0 	
0.155 7.05381e-14 	0 	0 	
0.165 -1.64589e-13 	0 	0 	
0.175 -1.75423e-24 	0 	0 	
0.185 -2.35127e-14 	0 	0 	
0.195 -4.70253e-14 	0 	0 	
0.205 -4.70256e-14 	5.22087e-30 	0 	
0.215 1.17564e-13 	0 	0 	
0.225 -4.70253e-14 	0 	0 	
0.235 2.35127e-14 	0 	0 	
0.245 4.70254e-14 	0 	0 	
0.255 -2.35127e-14 	0 	0 	
0.265 -1.64589e-13 	0 	0 	
0.275 -1.41076e-13 	0 	0 	
0.285 -4.70254e-14 	0 	0 	
0.295 -4.70253e-14 	0 	0 	
0.305 -2.35127e-14 	0 	0 	
0.315 2.35127e-14 	0 	0 	
0.325 9.40507e-14 	0 	0 	
0.335 -7.05381e-14 	0 	0 	
0.345 -2.35126e-14 	0 	0 	
0.355 3.5269e-13 	0 	0 	
0.365 4.49633e-10 	0 	0 	
0.375 1.33624e-07 	0 	0 	
0.385 1.4544e-05 	0 	0 	
0.395 0.000709291 	0 	0 	
0.405 0.0173349 	0 	0 	
0.415 0.226712 	0 	0 	
0.425 1.66252 	0 	0 	
0.435 7.26154 	0 	0 	
0.445 20.792 	0 	0 	
0.455 43.6701 	0 	0 	
0.465 73.7655 	0 	0 	
0.475 105.147 	0 	0 	
0.485 125.896 	0 	0 	
0.495 130.174 	0 	0 	
0.505 130.201 	-7.41978e-31 	0 	
0.515 130.159 	1.16935e-30 	0 	
0.525 130.118 	-1.83321e-30 	0 	
0.535 130 	-6.69722e-31 	0 	
0.545 128.905 	-8.48155e-31 	0 	
0.555 121.157 	0 	0 	
0.565 88.9435 	0 	0 	
0.575 29.9436 	0 	0 	
0.585 3.27522 	0 	0 	
0.595 0.17816 	0 	0 	
0.605 0.00560123 	0 	0 	
0.615 9.41518e-05 	0 	0 	
0.625 7.38705e-07 	0 	0 	
0.635 2.17522e-09 	0 	0 	
0.645 1.60474e-12 	0 	0 	
0.655 5.29035e-14 	0 	0 	
0.665 7.0538e-14 	0 	0 	
0.675 -5.29035e-14 	0 	0 	
0.685 5.29035e-14 	0 	0 	
0.695 -1.76344e-14 	0 	0 	
0.705 -1.76345e-14 	0 	0 	
0.715 -2.61254e-24 	0 	0 	
0.725 5.29035e-14 	0 	0 	
0.735 -8.81725e-14 	0 	0 	
0.745 -3.5269e-14 	0 	0 	
0.755 -7.0538e-14 	-1.95782e-30 	0 	
0.765 -3.5269e-14 	0 	0 	
0.775 -7.0538e-14 	0 	0 	
0.785 3.5269e-14 	0 	0 	
0.795 5.29035e-14 	-1.95782e-30 	0 	
0.805 4.35427e-25 	-1.95782e-30 	0 	
0.815 -2.17319e-24 	0 	0 	
0.825 -1.05807e-13 	0 	0 	
0.835 4.34675e-25 	0 	0 	
0.845 -3.52689e-14 	0 	0 	
0.855 -1.76345e-14 	0 	0 	
0.865 1.76345e-14 	0 	0 	
0.875 -1.76344e-14 	0 	0 	
0.885 -1.76344e-14 	0 	0 	
0.895 1.76345e-14 	0 	0 	
0.905 -1.76345e-14 	0 	0 	
0.915 3.5269e-14 	0 	0 	
0.925 3.52691e-14 	0 	0 	
0.935 7.05381e-14 	0 	0 	
0.945 -7.05381e-14 	0 	0 	
0.955 3.5269e-14 	0 	0 	
0.965 -1.76345e-14 	0 	0 	
0.975 -3.91565e-30 	0 	0 	
0.985 5.29035e-14 	0 	0 	
0.995 1.05807e-13 	0 	0 	
