0.005 6.79188e-14 	0 	0 	
0.015 7.06086e-14 	0 	0 	
0.025 1.04232e-13 	0 	0 	
0.035 1.3651e-13 	0 	0 	
0.045 -1.61393e-14 	0 	0 	
0.055 -3.63131e-14 	0 	0 	
0.065 -1.16336e-13 	0 	0 	
0.075 -2.35361e-14 	0 	0 	
0.085 -1.56684e-13 	0 	0 	
0.095 5.64868e-14 	0 	0 	
0.105 -1.00869e-14 	0 	0 	
0.115 -1.00869e-13 	5.36606e-30 	0 	
0.125 -1.68115e-14 	0 	0 	
0.135 1.07596e-14 	0 	0 	
0.145 6.52291e-14 	0 	0 	
0.155 4.50549e-14 	0 	0 	
0.165 -7.19536e-14 	0 	0 	
0.175 8.06954e-14 	0 	0 	
0.185 -1.00869e-13 	0 	0 	
0.195 -4.10202e-14 	0 	0 	
0.205 1.27095e-13 	0 	0 	
0.215 2.25275e-13 	0 	0 	
0.225 -7.39708e-14 	0 	0 	
0.235 -1.74844e-14 	0 	0 	
0.245 -9.61624e-14 	0 	0 	
0.255 -6.72464e-14 	0 	0 	
0.265 2.35045e-24 	0 	0 	
0.275 6.72455e-15 	0 	0 	
0.285 -3.02608e-14 	0 	0 	
0.295 4.84176e-14 	0 	0 	
0.305 2.08465e-14 	0 	0 	
0.315 3.36233e-14 	0 	0 	
0.325 -5.71591e-14 	0 	0 	
0.335 -5.87628e-25 	0 	0 	
0.345 1.10284e-13 	0 	0 	
0.355 -3.56406e-14 	0 	0 	
0.365 2.24603e-13 	0 	0 	
0.375 -1.68116e-14 	0 	0 	
0.385 9.10011e-09 	0 	0 	
0.395 1.75505e-05 	0 	0 	
0.405 0.00314043 	0 	0 	
0.415 0.119475 	0 	0 	
0.425 1.50842 	0 	0 	
0.435 8.30853 	0 	0 	
0.445 25.0879 	0 	0 	
0.455 51.7757 	0 	0 	
0.465 84.307 	0 	0 	
0.475 114.583 	0 	0 	
0.485 128.974 	0 	0 	
0.495 130.21 	0 	0 	
0.505 130.172 	0 	0 	
0.515 130.139 	0 	0 	
0.525 130.111 	0 	0 	
0.535 130.081 	0 	0 	
0.545 129.938 	0 	0 	
0.555 128.367 	0 	0 	
0.565 113.381 	0 	0 	
0.575 49.0746 	0 	0 	
0.585 2.91202 	0 	0 	
0.595 0.041477 	0 	0 	
0.605 0.000147817 	0 	0 	
0.615 5.47001e-08 	0 	0 	
0.625 3.78261e-14 	0 	0 	
0.635 3.93393e-14 	0 	0 	
0.645 4.74084e-14 	0 	0 	
0.655 1.71478e-14 	0 	0 	
0.665 6.85913e-14 	0 	0 	
0.675 6.05216e-14 	0 	0 	
0.685 1.37687e-13 	0 	0 	
0.695 5.24521e-14 	0 	0 	
0.705 1.96696e-14 	0 	0 	
0.715 5.04345e-14 	0 	0 	
0.725 7.06088e-14 	0 	0 	
0.735 3.73213e-14 	0 	0 	
0.745 3.2278e-14 	0 	0 	
0.755 -3.27825e-14 	0 	0 	
0.765 -2.52171e-14 	0 	0 	
0.775 2.52195e-15 	0 	0 	
0.785 -2.6226e-14 	0 	0 	
0.795 -1.20539e-13 	0 	0 	
0.805 -2.11826e-14 	0 	0 	
0.815 8.7252e-14 	0 	0 	
0.825 4.40721e-25 	0 	0 	
0.835 5.74955e-14 	0 	0 	
0.845 4.18608e-14 	0 	0 	
0.855 9.33038e-14 	0 	0 	
0.865 2.21913e-14 	0 	0 	
0.875 1.26087e-13 	0 	0 	
0.885 8.97737e-14 	0 	0 	
0.895 -1.91653e-14 	0 	0 	
0.905 6.65735e-14 	0 	0 	
0.915 -1.12974e-13 	0 	0 	
0.925 5.04345e-14 	0 	0 	
0.935 -1.35165e-13 	0 	0 	
0.945 -3.88346e-14 	0 	0 	
0.955 -6.15302e-14 	0 	0 	
0.965 9.73392e-14 	0 	0 	
0.975 1.26086e-14 	0 	0 	
0.985 -2.3704e-14 	0 	0 	
0.995 -4.69041e-14 	0 	0 	
