0.005 4.26387e-14 	0 	0 	
0.015 7.93553e-14 	0 	0 	
0.025 9.69898e-14 	0 	0 	
0.035 8.81726e-14 	0 	0 	
0.045 3.5269e-14 	0 	0 	
0.055 -2.64517e-14 	0 	0 	
0.065 -3.23299e-14 	0 	0 	
0.075 -2.05736e-14 	0 	0 	
0.085 -2.35127e-14 	0 	0 	
0.095 -2.92502e-25 	0 	0 	
0.105 3.23299e-14 	0 	0 	
0.115 2.93909e-14 	0 	0 	
0.125 -5.87817e-15 	0 	0 	
0.135 -7.05381e-14 	0 	0 	
0.145 -1.38137e-13 	-3.26305e-31 	0 	
0.155 -1.55772e-13 	0 	0 	
0.165 -1.32259e-13 	0 	0 	
0.175 -9.99289e-14 	0 	0 	
0.185 -4.70254e-14 	0 	0 	
0.195 2.64518e-14 	0 	0 	
0.205 6.46599e-14 	0 	0 	
0.215 5.58426e-14 	0 	0 	
0.225 6.75988e-14 	0 	0 	
0.235 8.22942e-14 	6.52609e-31 	0 	
0.245 4.99643e-14 	0 	0 	
0.255 8.81723e-15 	0 	0 	
0.265 -8.81727e-15 	0 	0 	
0.275 -5.87818e-15 	0 	0 	
0.285 0 	0 	0 	
0.295 1.17563e-14 	0 	0 	
0.305 4.40863e-14 	0 	0 	
0.315 6.7599e-14 	0 	0 	
0.325 5.29035e-14 	0 	0 	
0.335 1.17563e-14 	0 	0 	
0.345 -3.23299e-14 	0 	0 	
0.355 -5.58426e-14 	0 	0 	
0.365 -5.29036e-14 	0 	0 	
0.375 -4.40863e-14 	0 	0 	
0.385 -3.82081e-14 	0 	0 	
0.395 -4.11472e-14 	0 	0 	
0.405 -3.23299e-14 	0 	0 	
0.415 1.46954e-14 	0 	0 	
0.425 4.40863e-14 	0 	0 	
0.435 1.61094 	0 	0 	
0.445 10.9642 	0 	0 	
0.455 32.8553 	0 	0 	
0.465 62.9247 	0 	0 	
0.475 92.8733 	0 	0 	
0.485 115.318 	0 	0 	
0.495 126.817 	0 	0 	
0.505 130.821 	0 	0 	
0.515 132.189 	0 	0 	
0.525 132.691 	0 	0 	
0.535 131.02 	0 	0 	
0.545 119.552 	0 	0 	
0.555 86.2888 	0 	0 	
0.565 39.4693 	0 	0 	
0.575 8.1031 	-2.44726e-31 	0 	
0.585 0.0171754 	0 	0 	
0.595 2.20433e-15 	0 	0 	
0.605 -3.08604e-14 	0 	0 	
0.615 -6.61294e-14 	0 	0 	
0.625 -7.27424e-14 	0 	0 	
0.635 -5.95165e-14 	0 	0 	
0.645 -2.86561e-14 	0 	0 	
0.655 2.2043e-15 	0 	0 	
0.665 -1.76345e-14 	0 	0 	
0.675 -3.08604e-14 	0 	0 	
0.685 2.20431e-14 	0 	0 	
0.695 6.61294e-14 	0 	0 	
0.705 4.40863e-14 	0 	0 	
0.715 1.98388e-14 	0 	0 	
0.725 4.62906e-14 	0 	0 	
0.735 6.39251e-14 	0 	0 	
0.745 3.74733e-14 	0 	0 	
0.755 4.40863e-15 	0 	0 	
0.765 -2.20431e-14 	0 	0 	
0.775 -3.5269e-14 	0 	0 	
0.785 -2.64518e-14 	0 	0 	
0.795 -2.64518e-14 	0 	0 	
0.805 -3.08604e-14 	0 	0 	
0.815 -1.54302e-14 	-4.89455e-31 	0 	
0.825 2.20432e-15 	0 	0 	
0.835 1.10216e-14 	0 	0 	
0.845 8.81727e-15 	0 	0 	
0.855 1.76345e-14 	0 	0 	
0.865 2.86561e-14 	0 	0 	
0.875 1.54302e-14 	0 	0 	
0.885 1.10216e-14 	0 	0 	
0.895 1.98388e-14 	0 	0 	
0.905 1.76345e-14 	0 	0 	
0.915 -2.20432e-15 	0 	0 	
0.925 -1.98388e-14 	0 	0 	
0.935 -1.32259e-14 	0 	0 	
0.945 8.81727e-15 	0 	0 	
0.955 2.86561e-14 	0 	0 	
0.965 2.20432e-14 	0 	0 	
0.975 4.40863e-15 	0 	0 	
0.985 0 	0 	0 	
0.995 0 	0 	0 	
