0.005 -8.08245e-15 	0 	0 	
0.015 7.27425e-14 	0 	0 	
0.025 -1.13155e-13 	0 	0 	
0.035 -9.69896e-14 	0 	0 	
0.045 -7.27425e-14 	0 	0 	
0.055 -1.62682e-19 	0 	0 	
0.065 4.8495e-14 	0 	0 	
0.075 7.27425e-14 	0 	0 	
0.085 1.13155e-13 	0 	0 	
0.095 -5.65772e-14 	0 	0 	
0.105 8.08251e-15 	0 	0 	
0.115 1.6165e-14 	0 	0 	
0.125 4.04121e-14 	0 	0 	
0.135 -4.8495e-14 	0 	0 	
0.145 2.42475e-14 	0 	0 	
0.155 4.8495e-14 	0 	0 	
0.165 -4.04126e-14 	0 	0 	
0.175 -6.466e-14 	0 	0 	
0.185 -1.13154e-13 	0 	0 	
0.195 2.42475e-14 	0 	0 	
0.205 8.89075e-14 	0 	0 	
0.215 2.42475e-14 	0 	0 	
0.225 7.27421e-14 	0 	0 	
0.235 4.04124e-14 	0 	0 	
0.245 -8.08256e-15 	0 	0 	
0.255 -1.2932e-13 	0 	0 	
0.265 -8.08249e-14 	0 	0 	
0.275 -1.05072e-13 	0 	0 	
0.285 -5.65775e-14 	0 	0 	
0.295 -2.42475e-14 	0 	0 	
0.305 -5.65775e-14 	0 	0 	
0.315 -7.27421e-14 	5.15969e-30 	0 	
0.325 -1.37402e-13 	0 	0 	
0.335 -6.46595e-14 	-5.15969e-30 	0 	
0.345 1.10706e-10 	0 	0 	
0.355 1.09005e-07 	-2.80418e-30 	0 	
0.365 1.99601e-05 	1.03194e-29 	0 	
0.375 0.00125034 	0 	0 	
0.385 0.0320154 	0 	0 	
0.395 0.390343 	0 	0 	
0.405 2.46984 	0 	0 	
0.415 9.11532 	0 	0 	
0.425 22.5216 	-7.18977e-31 	0 	
0.435 42.4053 	0 	0 	
0.445 66.7739 	-1.64859e-30 	0 	
0.455 92.7689 	-1.8046e-30 	0 	
0.465 115.647 	-1.28733e-30 	0 	
0.475 128.037 	0 	0 	
0.485 130.175 	0 	0 	
0.495 130.189 	-6.77424e-31 	0 	
0.505 130.16 	-6.77893e-31 	0 	
0.515 130.137 	0 	0 	
0.525 130.118 	0 	0 	
0.535 130.102 	0 	0 	
0.545 130.084 	0 	0 	
0.555 130.064 	0 	0 	
0.565 129.98 	0 	0 	
0.575 129.133 	0 	0 	
0.585 122.482 	0 	0 	
0.595 87.9823 	0 	0 	
0.605 19.723 	0 	0 	
0.615 0.91398 	0 	0 	
0.625 0.0206282 	0 	0 	
0.635 0.000220718 	0 	0 	
0.645 8.99155e-07 	0 	0 	
0.655 7.09682e-10 	0 	0 	
0.665 -9.69899e-14 	0 	0 	
0.675 -4.84949e-14 	0 	0 	
0.685 1.81856e-14 	0 	0 	
0.695 1.81857e-14 	0 	0 	
0.705 -1.81857e-14 	0 	0 	
0.715 -4.40721e-25 	0 	0 	
0.725 -2.42476e-14 	0 	0 	
0.735 -1.81856e-14 	0 	0 	
0.745 1.21238e-14 	0 	0 	
0.755 8.48662e-14 	0 	0 	
0.765 5.45568e-14 	0 	0 	
0.775 -4.2433e-14 	0 	0 	
0.785 3.63713e-14 	0 	0 	
0.795 6.06187e-14 	0 	0 	
0.805 -6.06186e-15 	0 	0 	
0.815 7.88044e-14 	0 	0 	
0.825 4.8495e-14 	0 	0 	
0.835 1.81856e-14 	0 	0 	
0.845 -6.06181e-15 	0 	0 	
0.855 6.06186e-15 	0 	0 	
0.865 6.06181e-15 	0 	0 	
0.875 1.11171e-19 	0 	0 	
0.885 6.66807e-14 	0 	0 	
0.895 1.15176e-13 	0 	0 	
0.905 4.24331e-14 	0 	0 	
0.915 6.06186e-15 	0 	0 	
0.925 3.03093e-14 	0 	0 	
0.935 -3.63712e-14 	0 	0 	
0.945 -1.69732e-13 	0 	0 	
0.955 -6.0619e-15 	0 	0 	
0.965 8.48663e-14 	0 	0 	
0.975 1.81856e-14 	0 	0 	
0.985 6.06182e-15 	0 	0 	
0.995 6.66806e-14 	0 	0 	
