0.005 -1.17563e-13 	0 	0 	
0.015 -2.35126e-13 	0 	0 	
0.025 -4.7025e-13 	0 	0 	
0.035 3.52685e-13 	0 	0 	
0.045 2.9391e-13 	0 	0 	
0.055 2.35125e-13 	0 	0 	
0.065 2.9391e-13 	0 	0 	
0.075 7.05378e-13 	0 	0 	
0.085 -2.9391e-13 	0 	0 	
0.095 -2.05736e-12 	0 	0 	
0.105 -9.4051e-13 	0 	0 	
0.115 1.5871e-12 	0 	0 	
0.125 -1.11686e-12 	0 	0 	
0.135 -1.17565e-13 	0 	0 	
0.145 -2.9391e-13 	0 	0 	
0.155 1.64589e-12 	0 	0 	
0.165 -8.81725e-13 	0 	0 	
0.175 1.11685e-12 	0 	0 	
0.185 5.878e-14 	0 	0 	
0.195 4.1147e-13 	0 	0 	
0.205 -1.09589e-23 	0 	0 	
0.215 5.87815e-13 	0 	0 	
0.225 5.878e-14 	0 	0 	
0.235 -1.46053e-23 	0 	0 	
0.245 -6.46599e-13 	0 	0 	
0.255 -2.93908e-12 	0 	0 	
0.265 -4.1147e-13 	0 	0 	
0.275 1.76345e-13 	0 	0 	
0.285 -4.11471e-13 	0 	0 	
0.295 1.17565e-13 	0 	0 	
0.305 1.09442e-23 	0 	0 	
0.315 -1.41076e-12 	0 	0 	
0.325 1.46954e-12 	0 	0 	
0.335 2.18884e-23 	0 	0 	
0.345 -3.5269e-13 	0 	0 	
0.355 -4.1147e-13 	0 	0 	
0.365 7.0538e-13 	0 	0 	
0.375 -5.29035e-13 	0 	0 	
0.385 6.466e-13 	0 	0 	
0.395 -4.70254e-13 	0 	0 	
0.405 -8.2294e-13 	0 	0 	
0.415 7.64162e-13 	0 	0 	
0.425 3.5269e-13 	0 	0 	
0.435 1.76345e-13 	0 	0 	
0.445 -9.4051e-13 	0 	0 	
0.455 2.17492e-12 	0 	0 	
0.465 -2.64518e-12 	0 	0 	
0.475 -8.81727e-13 	0 	0 	
0.485 -4.70256e-13 	0 	0 	
0.495 209.392 	0 	0 	
0.505 779.25 	0 	0 	
0.515 8.81724e-13 	0 	0 	
0.525 5.29035e-13 	0 	0 	
0.535 -1.14624e-12 	0 	0 	
0.545 2.6452e-13 	0 	0 	
0.555 -7.93553e-13 	0 	0 	
0.565 -1.36667e-12 	0 	0 	
0.575 6.17207e-13 	0 	0 	
0.585 1.10216e-12 	0 	0 	
0.595 -2.86561e-12 	0 	0 	
0.605 1.10215e-12 	0 	0 	
0.615 -8.817e-14 	0 	0 	
0.625 -4.36201e-23 	0 	0 	
0.635 2.42474e-12 	0 	0 	
0.645 -1.80754e-12 	0 	0 	
0.655 7.4947e-13 	0 	0 	
0.665 -2.64515e-13 	0 	0 	
0.675 -1.3226e-13 	0 	0 	
0.685 -1.98388e-12 	0 	0 	
0.695 1.98388e-12 	0 	0 	
0.705 -7.93555e-13 	0 	0 	
0.715 -1.58711e-12 	0 	0 	
0.725 1.45484e-12 	0 	0 	
0.735 -4.4086e-13 	0 	0 	
0.745 -2.2043e-13 	0 	0 	
0.755 1.49894e-12 	0 	0 	
0.765 -2.64518e-12 	0 	0 	
0.775 3.9678e-13 	0 	0 	
0.785 -1.05807e-12 	0 	0 	
0.795 1.63119e-12 	0 	0 	
0.805 -2.557e-12 	0 	0 	
0.815 2.46883e-12 	0 	0 	
0.825 -2.99787e-12 	0 	0 	
0.835 -5.73125e-13 	0 	0 	
0.845 -4.84951e-13 	0 	0 	
0.855 1.05807e-12 	0 	0 	
0.865 -8.81725e-13 	0 	0 	
0.875 -8.3764e-13 	0 	0 	
0.885 6.61295e-13 	0 	0 	
0.895 8.14943e-23 	0 	0 	
0.905 2.02797e-12 	0 	0 	
0.915 1.63119e-12 	0 	0 	
0.925 9.25835e-13 	0 	0 	
0.935 -1.2785e-12 	0 	0 	
0.945 2.557e-12 	0 	0 	
0.955 1.43712e-22 	0 	0 	
0.965 -1.76345e-12 	0 	0 	
0.975 7.0538e-13 	0 	0 	
0.985 4.4085e-14 	0 	0 	
0.995 -2.90969e-12 	0 	0 	
