0.005 3.233e-14 	0 	0 	
0.015 8.08251e-15 	0 	0 	
0.025 1.6165e-14 	0 	0 	
0.035 -8.89075e-14 	0 	0 	
0.045 -8.89075e-14 	0 	0 	
0.055 6.46597e-14 	0 	0 	
0.065 2.42475e-14 	0 	0 	
0.075 5.65775e-14 	0 	0 	
0.085 6.466e-14 	0 	0 	
0.095 3.233e-14 	0 	0 	
0.105 8.89075e-14 	0 	0 	
0.115 3.23301e-14 	0 	0 	
0.125 1.61646e-14 	0 	0 	
0.135 -8.08212e-15 	0 	0 	
0.145 -8.0825e-14 	0 	0 	
0.155 -8.08262e-15 	0 	0 	
0.165 7.27421e-14 	0 	0 	
0.175 -7.27425e-14 	0 	0 	
0.185 -1.2932e-13 	0 	0 	
0.195 1.77197e-21 	0 	0 	
0.205 -1.61654e-14 	0 	0 	
0.215 -7.27425e-14 	0 	0 	
0.225 1.37402e-13 	0 	0 	
0.235 5.65775e-14 	0 	0 	
0.245 -8.08249e-15 	0 	0 	
0.255 -8.89071e-14 	0 	0 	
0.265 4.84946e-14 	0 	0 	
0.275 -5.87626e-25 	0 	0 	
0.285 -2.42475e-14 	0 	0 	
0.295 8.08249e-15 	0 	0 	
0.305 4.8495e-14 	0 	0 	
0.315 8.08262e-15 	4.93534e-30 	0 	
0.325 -7.27423e-14 	0 	0 	
0.335 -5.65775e-14 	-4.93534e-30 	0 	
0.345 6.54682e-13 	0 	0 	
0.355 4.13889e-09 	-2.57985e-30 	0 	
0.365 1.88644e-06 	9.87068e-30 	0 	
0.375 0.000220065 	0 	0 	
0.385 0.00890443 	0 	0 	
0.395 0.156746 	0 	0 	
0.405 1.32793 	0 	0 	
0.415 6.09797 	0 	0 	
0.425 17.4597 	-4.72052e-31 	0 	
0.435 36.0858 	0 	0 	
0.445 60.2619 	-1.34585e-30 	0 	
0.455 87.1015 	-1.47706e-30 	0 	
0.465 111.987 	-1.58958e-30 	0 	
0.475 127.011 	0 	0 	
0.485 130.139 	0 	0 	
0.495 130.193 	-6.77493e-31 	0 	
0.505 130.162 	-6.78004e-31 	0 	
0.515 130.138 	0 	0 	
0.525 130.118 	0 	0 	
0.535 130.1 	0 	0 	
0.545 130.081 	0 	0 	
0.555 130.052 	0 	0 	
0.565 129.852 	0 	0 	
0.575 127.801 	0 	0 	
0.585 113.644 	0 	0 	
0.595 58.3823 	0 	0 	
0.605 6.00272 	0 	0 	
0.615 0.183121 	0 	0 	
0.625 0.00283427 	0 	0 	
0.635 1.71731e-05 	0 	0 	
0.645 2.89324e-08 	0 	0 	
0.655 3.36434e-12 	0 	0 	
0.665 -7.88042e-14 	0 	0 	
0.675 -6.06188e-14 	0 	0 	
0.685 -1.21237e-14 	0 	0 	
0.695 2.42476e-14 	0 	0 	
0.705 1.21234e-14 	0 	0 	
0.715 -7.88043e-14 	0 	0 	
0.725 -4.24331e-14 	0 	0 	
0.735 3.63711e-14 	0 	0 	
0.745 8.48663e-14 	0 	0 	
0.755 1.33361e-13 	0 	0 	
0.765 9.69897e-14 	0 	0 	
0.775 -2.20353e-24 	0 	0 	
0.785 1.81855e-14 	0 	0 	
0.795 1.81856e-14 	0 	0 	
0.805 4.2433e-14 	0 	0 	
0.815 9.0928e-14 	0 	0 	
0.825 -8.48663e-14 	0 	0 	
0.835 7.27425e-14 	0 	0 	
0.845 8.48662e-14 	0 	0 	
0.855 1.81856e-14 	0 	0 	
0.865 1.81856e-14 	0 	0 	
0.875 -4.24328e-14 	0 	0 	
0.885 -1.81857e-14 	0 	0 	
0.895 6.66805e-14 	0 	0 	
0.905 1.21237e-14 	0 	0 	
0.915 -3.03094e-14 	0 	0 	
0.925 -8.48663e-14 	0 	0 	
0.935 4.8495e-14 	0 	0 	
0.945 -7.8804e-14 	0 	0 	
0.955 -9.42204e-29 	0 	0 	
0.965 7.27425e-14 	0 	0 	
0.975 3.63713e-14 	0 	0 	
0.985 -6.66805e-14 	0 	0 	
0.995 1.11171e-19 	0 	0 	
