0.005 5.48921e-14 	0 	0 	
0.015 1.02868e-13 	0 	0 	
0.025 1.2932e-13 	0 	0 	
0.035 1.38137e-13 	0 	0 	
0.045 1.32259e-13 	0 	0 	
0.055 9.40507e-14 	0 	0 	
0.065 4.40863e-14 	0 	0 	
0.075 2.92468e-25 	0 	0 	
0.085 -5.87816e-14 	0 	0 	
0.095 -1.11685e-13 	0 	0 	
0.105 -1.49893e-13 	0 	0 	
0.115 -1.76345e-13 	0 	0 	
0.125 -1.79285e-13 	0 	0 	
0.135 -1.99858e-13 	0 	0 	
0.145 -2.41005e-13 	-1.79468e-30 	0 	
0.155 -2.52762e-13 	1.63152e-30 	0 	
0.165 -2.5864e-13 	0 	0 	
0.175 -2.52762e-13 	0 	0 	
0.185 -1.58711e-13 	0 	0 	
0.195 -2.35127e-14 	0 	0 	
0.205 4.40863e-14 	0 	0 	
0.215 5.58426e-14 	0 	0 	
0.225 8.52334e-14 	1.63152e-31 	0 	
0.235 1.11685e-13 	1.04417e-29 	0 	
0.245 9.69898e-14 	6.52609e-31 	0 	
0.255 8.52335e-14 	0 	0 	
0.265 8.22944e-14 	0 	0 	
0.275 6.46599e-14 	0 	0 	
0.285 6.75989e-14 	0 	0 	
0.295 1.08746e-13 	0 	0 	
0.305 1.23441e-13 	0 	0 	
0.315 9.69898e-14 	0 	0 	
0.325 6.7599e-14 	0 	0 	
0.335 2.35127e-14 	0 	0 	
0.345 -4.11473e-14 	0 	0 	
0.355 -5.58428e-14 	0 	0 	
0.365 0.91638 	0 	0 	
0.375 6.01068 	0 	0 	
0.385 17.7221 	0 	0 	
0.395 34.1773 	0 	0 	
0.405 52.4979 	0 	0 	
0.415 71.2418 	0 	0 	
0.425 89.2763 	0 	0 	
0.435 105.24 	0 	0 	
0.445 117.663 	0 	0 	
0.455 125.387 	0 	0 	
0.465 128.881 	0 	0 	
0.475 130.127 	0 	0 	
0.485 130.37 	0 	0 	
0.495 130.109 	0 	0 	
0.505 129.853 	0 	0 	
0.515 129.85 	0 	0 	
0.525 130.117 	0 	0 	
0.535 130.497 	0 	0 	
0.545 130.727 	0 	0 	
0.555 130.647 	0 	0 	
0.565 130.235 	0 	0 	
0.575 129.687 	-2.70464e-30 	0 	
0.585 129.388 	-1.86557e-30 	0 	
0.595 129.489 	0 	0 	
0.605 129.72 	0 	0 	
0.615 129.51 	0 	0 	
0.625 127.056 	0 	0 	
0.635 114.575 	0 	0 	
0.645 81.1492 	0 	0 	
0.655 36.2259 	0 	0 	
0.665 7.19963 	0 	0 	
0.675 -1.10216e-14 	0 	0 	
0.685 2.64518e-14 	0 	0 	
0.695 6.39251e-14 	0 	0 	
0.705 4.40863e-14 	0 	0 	
0.715 1.32259e-14 	0 	0 	
0.725 2.64518e-14 	0 	0 	
0.735 5.95165e-14 	0 	0 	
0.745 6.61294e-14 	0 	0 	
0.755 4.40863e-14 	0 	0 	
0.765 3.08604e-14 	0 	0 	
0.775 3.74733e-14 	0 	0 	
0.785 3.96777e-14 	0 	0 	
0.795 2.64518e-14 	0 	0 	
0.805 2.20431e-14 	0 	0 	
0.815 2.42474e-14 	-8.32077e-30 	0 	
0.825 1.32259e-14 	0 	0 	
0.835 -2.20431e-15 	0 	0 	
0.845 -1.76345e-14 	0 	0 	
0.855 -3.5269e-14 	0 	0 	
0.865 -4.40863e-14 	0 	0 	
0.875 -5.73121e-14 	0 	0 	
0.885 -7.71509e-14 	0 	0 	
0.895 -7.05381e-14 	0 	0 	
0.905 -3.74734e-14 	0 	0 	
0.915 -1.54302e-14 	0 	0 	
0.925 -2.20431e-14 	0 	0 	
0.935 -8.81725e-15 	0 	0 	
0.945 4.40863e-14 	0 	0 	
0.955 9.03768e-14 	0 	0 	
0.965 1.10216e-13 	0 	0 	
0.975 1.1242e-13 	0 	0 	
0.985 9.91942e-14 	0 	0 	
0.995 6.7281e-14 	0 	0 	
