0.005 -6.33741e-14 	0 	0 	
0.015 5.49242e-14 	0 	0 	
0.025 -2.53496e-14 	0 	0 	
0.035 -7.60489e-14 	0 	0 	
0.045 -2.9386e-25 	0 	0 	
0.055 -8.44987e-15 	0 	0 	
0.065 -2.11247e-14 	-6.09781e-30 	0 	
0.075 -8.44987e-15 	0 	0 	
0.085 -1.05623e-13 	0 	0 	
0.095 -1.68998e-14 	0 	0 	
0.105 2.53496e-14 	0 	0 	
0.115 1.56323e-13 	0 	0 	
0.125 1.68998e-14 	0 	0 	
0.135 -1.26748e-14 	0 	0 	
0.145 3.80244e-14 	0 	0 	
0.155 7.18239e-14 	0 	0 	
0.165 8.44988e-14 	0 	0 	
0.175 2.95746e-14 	0 	0 	
0.185 -4.22494e-15 	0 	0 	
0.195 4.22494e-14 	0 	0 	
0.205 5.91491e-14 	0 	0 	
0.215 7.18239e-14 	0 	0 	
0.225 -2.53496e-14 	0 	0 	
0.235 -1.90122e-13 	0 	0 	
0.245 -2.95746e-14 	0 	0 	
0.255 -6.33741e-14 	0 	0 	
0.265 -8.44988e-14 	0 	0 	
0.275 -1.68998e-13 	0 	0 	
0.285 7.60489e-14 	0 	0 	
0.295 -4.22494e-14 	0 	0 	
0.305 6.7599e-14 	0 	0 	
0.315 -1.26748e-14 	0 	0 	
0.325 1.64773e-13 	0 	0 	
0.335 5.57269e-12 	0 	0 	
0.345 1.2333e-08 	0 	0 	
0.355 3.501e-06 	0 	0 	
0.365 0.000303071 	0 	0 	
0.375 0.0105091 	0 	0 	
0.385 0.161962 	0 	0 	
0.395 1.25618 	0 	0 	
0.405 5.51247 	0 	0 	
0.415 15.467 	0 	0 	
0.425 31.7022 	0 	0 	
0.435 52.8982 	0 	0 	
0.445 76.9716 	1.77752e-30 	0 	
0.455 101.131 	0 	0 	
0.465 120.497 	0 	0 	
0.475 129.139 	0 	0 	
0.485 130.198 	5.30762e-31 	0 	
0.495 130.181 	0 	0 	
0.505 130.155 	0 	0 	
0.515 130.135 	1.77591e-31 	0 	
0.525 130.118 	0 	0 	
0.535 130.103 	0 	0 	
0.545 130.089 	0 	0 	
0.555 130.074 	-4.85847e-30 	0 	
0.565 130.054 	0 	0 	
0.575 129.93 	0 	0 	
0.585 129.344 	0 	0 	
0.595 129.308 	0 	0 	
0.605 89.1648 	0 	0 	
0.615 15.5091 	0 	0 	
0.625 0.582682 	0 	0 	
0.635 0.0107532 	0 	0 	
0.645 9.82343e-05 	0 	0 	
0.655 3.24321e-07 	0 	0 	
0.665 1.75502e-10 	0 	0 	
0.675 4.75305e-14 	0 	0 	
0.685 7.28799e-14 	0 	0 	
0.695 -1.26745e-14 	0 	0 	
0.705 -3.48557e-14 	0 	0 	
0.715 3.16868e-14 	0 	0 	
0.725 -3.80242e-14 	5.27696e-30 	0 	
0.735 -8.23864e-14 	0 	0 	
0.745 4.43619e-14 	0 	0 	
0.755 5.70368e-14 	0 	0 	
0.765 4.75305e-14 	-1.40719e-29 	0 	
0.775 3.16894e-15 	0 	0 	
0.785 5.38682e-14 	0 	0 	
0.795 -1.01398e-13 	0 	0 	
0.805 -1.90122e-14 	0 	0 	
0.815 -8.87235e-14 	7.38773e-30 	0 	
0.825 2.21809e-14 	3.34207e-30 	0 	
0.835 -2.85183e-14 	0 	0 	
0.845 1.4576e-13 	0 	0 	
0.855 2.21808e-14 	0 	0 	
0.865 1.14073e-13 	0 	0 	
0.875 -2.21809e-14 	0 	0 	
0.885 3.48556e-14 	0 	0 	
0.895 1.58431e-14 	0 	0 	
0.905 1.17242e-13 	0 	0 	
0.915 4.11929e-14 	0 	0 	
0.925 4.75303e-14 	0 	0 	
0.935 1.90121e-14 	0 	0 	
0.945 5.38679e-14 	0 	0 	
0.955 1.36254e-13 	0 	0 	
0.965 -5.70363e-14 	0 	0 	
0.975 -7.28802e-14 	0 	0 	
0.985 5.70367e-14 	0 	0 	
0.995 2.85181e-14 	0 	0 	
