0.005 4.90141e-14 	0 	0 	
0.015 8.22944e-14 	0 	0 	
0.025 9.99288e-14 	0 	0 	
0.035 9.11115e-14 	0 	0 	
0.045 3.52689e-14 	0 	0 	
0.055 -2.35127e-14 	0 	0 	
0.065 -2.93909e-14 	0 	0 	
0.075 -2.05736e-14 	0 	0 	
0.085 -2.64518e-14 	0 	0 	
0.095 -1.17563e-14 	0 	0 	
0.105 1.17563e-14 	0 	0 	
0.115 1.17563e-14 	0 	0 	
0.125 -1.17563e-14 	0 	0 	
0.135 -5.58426e-14 	0 	0 	
0.145 -9.99289e-14 	-5.38402e-30 	0 	
0.155 -1.26381e-13 	0 	0 	
0.165 -1.58711e-13 	0 	0 	
0.175 -1.99858e-13 	0 	0 	
0.185 -1.96919e-13 	0 	0 	
0.195 -1.52832e-13 	0 	0 	
0.205 -1.17563e-13 	0 	0 	
0.215 -8.52334e-14 	0 	0 	
0.225 -2.93909e-14 	0 	0 	
0.235 3.233e-14 	1.0768e-29 	0 	
0.245 5.87818e-14 	0 	0 	
0.255 4.70254e-14 	0 	0 	
0.265 3.233e-14 	0 	0 	
0.275 4.11472e-14 	0 	0 	
0.285 4.99645e-14 	0 	0 	
0.295 2.93909e-14 	0 	0 	
0.305 5.87818e-15 	0 	0 	
0.315 -2.93907e-15 	0 	0 	
0.325 2.9391e-15 	0 	0 	
0.335 8.81725e-15 	0 	0 	
0.345 -2.9391e-15 	0 	0 	
0.355 -1.46954e-14 	0 	0 	
0.365 0.00711675 	0 	0 	
0.375 1.7441 	0 	0 	
0.385 9.04899 	0 	0 	
0.395 23.1525 	0 	0 	
0.405 41.3499 	0 	0 	
0.415 61.0467 	0 	0 	
0.425 80.8694 	0 	0 	
0.435 99.4095 	0 	0 	
0.445 114.555 	0 	0 	
0.455 124.473 	0 	0 	
0.465 129.285 	0 	0 	
0.475 130.609 	0 	0 	
0.485 130.294 	0 	0 	
0.495 129.754 	0 	0 	
0.505 129.633 	0 	0 	
0.515 129.938 	0 	0 	
0.525 130.391 	0 	0 	
0.535 130.712 	0 	0 	
0.545 130.705 	0 	0 	
0.555 130.4 	0 	0 	
0.565 130 	0 	0 	
0.575 129.504 	-3.39437e-30 	0 	
0.585 129.166 	-2.70992e-30 	0 	
0.595 129.672 	0 	0 	
0.605 129.934 	0 	0 	
0.615 127.855 	0 	0 	
0.625 117.744 	0 	0 	
0.635 87.895 	0 	0 	
0.645 42.9539 	0 	0 	
0.655 10.0987 	0 	0 	
0.665 0.32798 	0 	0 	
0.675 2.20432e-14 	0 	0 	
0.685 4.40863e-14 	0 	0 	
0.695 4.62906e-14 	0 	0 	
0.705 5.06992e-14 	0 	0 	
0.715 5.29036e-14 	0 	0 	
0.725 6.61295e-14 	0 	0 	
0.735 8.81728e-14 	0 	0 	
0.745 6.61295e-14 	0 	0 	
0.755 2.42475e-14 	0 	0 	
0.765 -2.20432e-15 	0 	0 	
0.775 -1.76345e-14 	0 	0 	
0.785 -3.5269e-14 	0 	0 	
0.795 -5.06992e-14 	0 	0 	
0.805 -3.30647e-14 	0 	0 	
0.815 -1.10216e-14 	-8.07603e-30 	0 	
0.825 -1.76345e-14 	0 	0 	
0.835 -3.30647e-14 	0 	0 	
0.845 -3.74734e-14 	0 	0 	
0.855 -2.20432e-14 	0 	0 	
0.865 6.61293e-15 	0 	0 	
0.875 8.81724e-15 	0 	0 	
0.885 -4.40864e-14 	0 	0 	
0.895 -8.15598e-14 	0 	0 	
0.905 -5.06993e-14 	0 	0 	
0.915 -2.86561e-14 	0 	0 	
0.925 -3.74733e-14 	0 	0 	
0.935 -1.98388e-14 	0 	0 	
0.945 4.18819e-14 	0 	0 	
0.955 1.16828e-13 	0 	0 	
0.965 1.32259e-13 	0 	0 	
0.975 9.25811e-14 	0 	0 	
0.985 6.61294e-14 	0 	0 	
0.995 4.89007e-14 	0 	0 	
