0.005 -7.15963e-14 	0 	0 	
0.015 9.20524e-14 	0 	0 	
0.025 -4.54215e-29 	0 	0 	
0.035 2.38654e-14 	0 	0 	
0.045 -1.15917e-13 	0 	0 	
0.055 -9.20521e-14 	0 	0 	
0.065 -1.36375e-14 	0 	0 	
0.075 1.36373e-13 	0 	0 	
0.085 -1.0228e-14 	0 	0 	
0.095 1.05689e-13 	0 	0 	
0.105 -5.79586e-14 	0 	0 	
0.115 -6.81855e-15 	0 	0 	
0.125 -3.40933e-14 	0 	0 	
0.135 2.0456e-14 	0 	0 	
0.145 1.5342e-13 	0 	0 	
0.155 2.38654e-14 	0 	0 	
0.165 -4.77309e-14 	0 	0 	
0.175 -5.114e-14 	0 	0 	
0.185 8.18241e-14 	-1.41942e-30 	0 	
0.195 3.75028e-14 	0 	0 	
0.205 1.70467e-13 	0 	0 	
0.215 3.75027e-14 	0 	0 	
0.225 -9.99981e-20 	0 	0 	
0.235 6.8186e-15 	0 	0 	
0.245 1.26145e-13 	0 	0 	
0.255 5.87727e-26 	-1.41942e-30 	0 	
0.265 5.79589e-14 	-7.09711e-31 	0 	
0.275 3.40933e-14 	0 	0 	
0.285 -2.04559e-14 	0 	0 	
0.295 5.79588e-14 	0 	0 	
0.305 6.8187e-14 	0 	0 	
0.315 -3.40948e-15 	0 	0 	
0.325 -1.19327e-13 	0 	0 	
0.335 2.72748e-14 	0 	0 	
0.345 1.22736e-13 	0 	0 	
0.355 8.1824e-14 	-5.91426e-31 	0 	
0.365 1.0228e-14 	0 	0 	
0.375 -1.5342e-13 	0 	0 	
0.385 -8.86428e-14 	0 	0 	
0.395 6.47773e-14 	0 	0 	
0.405 9.8871e-14 	0 	0 	
0.415 -3.0684e-14 	0 	0 	
0.425 1.70469e-14 	0 	0 	
0.435 -1.09099e-13 	0 	0 	
0.445 8.86427e-14 	0 	0 	
0.455 -1.5683e-13 	0 	0 	
0.465 0.00968537 	0 	0 	
0.475 3.79636 	0 	0 	
0.485 39.0768 	0 	0 	
0.495 112.937 	3.43956e-31 	0 	
0.505 130.121 	0 	0 	
0.515 117.286 	0 	0 	
0.525 33.5788 	0 	0 	
0.535 0.0466382 	0 	0 	
0.545 -4.34694e-14 	0 	0 	
0.555 3.57979e-14 	0 	0 	
0.565 7.9267e-14 	0 	0 	
0.575 -5.114e-14 	0 	0 	
0.585 -2.3013e-14 	0 	0 	
0.595 4.8583e-14 	0 	0 	
0.605 7.671e-15 	0 	0 	
0.615 3.5798e-14 	0 	0 	
0.625 1.2785e-14 	0 	0 	
0.635 1.0228e-13 	0 	0 	
0.645 -4.34694e-14 	0 	0 	
0.655 6.9039e-14 	0 	0 	
0.665 5.11398e-14 	0 	0 	
0.675 3.15476e-24 	0 	0 	
0.685 5.00002e-19 	0 	0 	
0.695 -1.2785e-13 	0 	0 	
0.705 5.36974e-14 	0 	0 	
0.715 -4.6026e-14 	0 	0 	
0.725 1.2785e-14 	0 	0 	
0.735 2.30134e-14 	0 	0 	
0.745 3.06839e-14 	0 	0 	
0.755 1.53421e-14 	0 	0 	
0.765 -6.6482e-14 	0 	0 	
0.775 -2.557e-14 	0 	0 	
0.785 4.85831e-14 	0 	0 	
0.795 -6.13684e-14 	0 	0 	
0.805 5.114e-15 	0 	0 	
0.815 -6.90395e-14 	0 	0 	
0.825 -1.27851e-14 	0 	0 	
0.835 7.671e-14 	0 	0 	
0.845 1.27854e-14 	0 	0 	
0.855 5.114e-14 	0 	0 	
0.865 -1.27853e-14 	0 	0 	
0.875 -6.3925e-14 	0 	0 	
0.885 -4.0912e-14 	0 	0 	
0.895 -5.114e-15 	0 	0 	
0.905 1.15065e-13 	0 	0 	
0.915 4.60264e-14 	0 	0 	
0.925 2.557e-14 	0 	0 	
0.935 -1.2785e-13 	0 	0 	
0.945 1.04837e-13 	0 	0 	
0.955 3.83549e-14 	0 	0 	
0.965 -3.06839e-14 	0 	0 	
0.975 2.557e-14 	0 	0 	
0.985 3.0684e-14 	0 	0 	
0.995 6.81324e-30 	0 	0 	
