0.005 2.11614e-13 	0 	0 	
0.015 1.05807e-13 	0 	0 	
0.025 1.05807e-13 	0 	0 	
0.035 -3.52689e-14 	0 	0 	
0.045 2.82152e-13 	0 	0 	
0.055 -3.5269e-14 	0 	0 	
0.065 -1.41076e-13 	0 	0 	
0.075 1.41076e-13 	0 	0 	
0.085 1.05807e-13 	0 	0 	
0.095 -1.41076e-13 	0 	0 	
0.105 1.31639e-24 	0 	0 	
0.115 -7.0538e-14 	0 	0 	
0.125 2.11614e-13 	-8.56548e-31 	0 	
0.135 -7.0538e-14 	0 	0 	
0.145 -1.76345e-13 	0 	0 	
0.155 -7.05379e-14 	0 	0 	
0.165 -7.05379e-14 	0 	0 	
0.175 -7.05381e-14 	-1.95783e-30 	0 	
0.185 -2.63131e-24 	-1.95783e-30 	0 	
0.195 1.05807e-13 	0 	0 	
0.205 1.05807e-13 	0 	0 	
0.215 1.05807e-13 	0 	0 	
0.225 -1.05807e-13 	0 	0 	
0.235 -7.0538e-14 	0 	0 	
0.245 -1.76345e-13 	0 	0 	
0.255 3.94344e-24 	-2.20255e-30 	0 	
0.265 3.52689e-14 	-2.20255e-30 	0 	
0.275 -1.31442e-24 	0 	0 	
0.285 7.0538e-14 	0 	0 	
0.295 -3.52691e-14 	0 	0 	
0.305 1.05807e-13 	0 	0 	
0.315 -3.5269e-14 	0 	0 	
0.325 2.11614e-13 	0 	0 	
0.335 -1.41076e-13 	0 	0 	
0.345 -1.05807e-13 	0 	0 	
0.355 1.76345e-13 	-1.95783e-30 	0 	
0.365 -1.05807e-13 	0 	0 	
0.375 1.76345e-13 	0 	0 	
0.385 3.5269e-14 	0 	0 	
0.395 1.05807e-13 	0 	0 	
0.405 1.41076e-13 	0 	0 	
0.415 -1.05807e-13 	2.20255e-30 	0 	
0.425 -3.5269e-14 	1.7131e-30 	0 	
0.435 1.05807e-13 	-9.78913e-31 	0 	
0.445 3.5269e-14 	1.7131e-30 	0 	
0.455 0.00863538 	0 	0 	
0.465 1.75938 	0 	0 	
0.475 20.732 	0 	0 	
0.485 72.3563 	3.01499e-31 	0 	
0.495 125.555 	7.24862e-31 	0 	
0.505 130.177 	-1.91009e-31 	0 	
0.515 129.212 	0 	0 	
0.525 101.594 	0 	0 	
0.535 21.0253 	0 	0 	
0.545 0.0602804 	0 	0 	
0.555 -7.93555e-14 	0 	0 	
0.565 -2.64515e-14 	0 	0 	
0.575 1.05807e-13 	0 	0 	
0.585 7.93555e-14 	0 	0 	
0.595 3.92584e-24 	0 	0 	
0.605 -7.9355e-14 	0 	0 	
0.615 1.05807e-13 	0 	0 	
0.625 1.32259e-13 	0 	0 	
0.635 7.93555e-14 	0 	0 	
0.645 2.64515e-14 	0 	0 	
0.655 2.6452e-14 	0 	0 	
0.665 7.93553e-14 	0 	0 	
0.675 -9.81467e-25 	0 	0 	
0.685 -2.64518e-14 	0 	0 	
0.695 -2.6452e-14 	0 	0 	
0.705 -1.05807e-13 	0 	0 	
0.715 -5.29035e-14 	0 	0 	
0.725 5.29035e-14 	0 	0 	
0.735 2.64518e-14 	0 	0 	
0.745 -2.64515e-14 	0 	0 	
0.755 -7.93553e-14 	0 	0 	
0.765 -1.32259e-13 	0 	0 	
0.775 -7.93555e-14 	0 	0 	
0.785 -7.93555e-14 	0 	0 	
0.795 1.5871e-13 	0 	0 	
0.805 1.85162e-13 	0 	0 	
0.815 -5.29035e-14 	0 	0 	
0.825 2.64515e-14 	0 	0 	
0.835 -2.6452e-14 	0 	0 	
0.845 -5.29037e-14 	0 	0 	
0.855 -1.05807e-13 	0 	0 	
0.865 9.7791e-25 	0 	0 	
0.875 1.05807e-13 	0 	0 	
0.885 -7.93553e-14 	0 	0 	
0.895 1.5871e-13 	0 	0 	
0.905 2.64517e-14 	0 	0 	
0.915 -2.6452e-14 	0 	0 	
0.925 -5.29036e-14 	0 	0 	
0.935 5.29035e-14 	0 	0 	
0.945 -5.29037e-14 	0 	0 	
0.955 1.85162e-13 	0 	0 	
0.965 -5.29036e-14 	0 	0 	
0.975 2.64518e-14 	0 	0 	
0.985 1.58711e-13 	0 	0 	
0.995 1.05807e-13 	0 	0 	
