0.005 -9.71072e-14 	0 	0 	
0.015 -1.04044e-14 	0 	0 	
0.025 -1.04044e-13 	0 	0 	
0.035 3.46812e-15 	0 	0 	
0.045 6.0692e-14 	0 	0 	
0.055 -6.24262e-14 	0 	0 	
0.065 -1.21384e-14 	0 	0 	
0.075 -1.30055e-13 	0 	0 	
0.085 -9.53734e-14 	9.62599e-31 	0 	
0.095 1.24853e-13 	0 	0 	
0.105 7.10966e-14 	0 	0 	
0.115 -1.68204e-13 	-2.4065e-31 	0 	
0.125 0 	2.4065e-31 	0 	
0.135 -3.98833e-14 	0 	0 	
0.145 -2.25428e-14 	0 	0 	
0.155 1.56065e-14 	0 	0 	
0.165 0 	0 	0 	
0.175 3.46813e-14 	0 	0 	
0.185 1.38725e-13 	0 	0 	
0.195 -6.58944e-14 	0 	0 	
0.205 -9.71072e-14 	0 	0 	
0.215 0 	0 	0 	
0.225 -8.6703e-15 	0 	0 	
0.235 0 	0 	0 	
0.245 3.81494e-14 	0 	0 	
0.255 -5.7224e-14 	0 	0 	
0.265 -9.01711e-14 	0 	0 	
0.275 1.99417e-13 	0 	0 	
0.285 -5.89581e-14 	0 	0 	
0.295 3.29471e-14 	0 	0 	
0.305 -5.72241e-14 	0 	0 	
0.315 -3.81494e-14 	0 	0 	
0.325 8.67012e-15 	0 	0 	
0.335 -1.21384e-14 	0 	0 	
0.345 8.84371e-14 	0 	0 	
0.355 1.05778e-13 	0 	0 	
0.365 1.04044e-14 	0 	0 	
0.375 -3.46812e-14 	0 	0 	
0.385 2.9479e-14 	0 	0 	
0.395 3.81493e-14 	0 	0 	
0.405 -4.16173e-14 	0 	0 	
0.415 -4.85537e-14 	0 	0 	
0.425 -8.67037e-15 	0 	0 	
0.435 2.25428e-14 	0 	0 	
0.445 -1.21384e-14 	0 	0 	
0.455 -2.0809e-14 	0 	0 	
0.465 4.68197e-14 	0 	0 	
0.475 3.46812e-14 	0 	0 	
0.485 4.85537e-14 	0 	0 	
0.495 22.0479 	0 	0 	
0.505 74.0784 	0 	0 	
0.515 2.21093e-14 	0 	0 	
0.525 0 	0 	0 	
0.535 7.80327e-15 	0 	0 	
0.545 -9.49399e-14 	0 	0 	
0.555 -2.99124e-14 	0 	0 	
0.565 -6.37267e-14 	0 	0 	
0.575 2.60106e-14 	0 	0 	
0.585 7.02292e-14 	0 	0 	
0.595 -5.20215e-14 	0 	0 	
0.605 4.94204e-14 	0 	0 	
0.615 7.02293e-14 	0 	0 	
0.625 -1.88579e-13 	0 	0 	
0.635 3.51143e-14 	0 	0 	
0.645 1.30054e-14 	0 	0 	
0.655 1.82074e-14 	0 	0 	
0.665 7.41312e-14 	0 	0 	
0.675 -6.50272e-15 	0 	0 	
0.685 -1.04045e-14 	0 	0 	
0.695 -9.75413e-14 	0 	0 	
0.705 -8.45353e-14 	0 	0 	
0.715 1.56065e-14 	0 	0 	
0.725 6.50273e-15 	0 	0 	
0.735 -5.07212e-14 	0 	0 	
0.745 -1.04046e-14 	0 	0 	
0.755 -1.4306e-14 	0 	0 	
0.765 -1.82077e-14 	0 	0 	
0.775 -1.30054e-14 	0 	0 	
0.785 0 	0 	0 	
0.795 7.02292e-14 	0 	0 	
0.805 -9.75407e-14 	0 	0 	
0.815 -1.4306e-14 	0 	0 	
0.825 6.5027e-14 	0 	0 	
0.835 -3.90164e-14 	0 	0 	
0.845 5.72239e-14 	0 	0 	
0.855 2.60082e-15 	0 	0 	
0.865 -9.36391e-14 	0 	0 	
0.875 1.30055e-14 	0 	0 	
0.885 -1.82076e-14 	0 	0 	
0.895 -4.812e-14 	0 	0 	
0.905 -2.6011e-15 	0 	0 	
0.915 7.80329e-14 	0 	0 	
0.925 3.25138e-14 	0 	0 	
0.935 6.50273e-14 	0 	0 	
0.945 2.21092e-14 	0 	0 	
0.955 -1.56065e-14 	0 	0 	
0.965 -4.68199e-14 	0 	0 	
0.975 1.30055e-14 	0 	0 	
0.985 -7.02292e-14 	0 	0 	
0.995 -4.94205e-14 	0 	0 	
