0.005 -1.76345e-13 	0 	0 	
0.015 7.89658e-24 	0 	0 	
0.025 3.5269e-14 	0 	0 	
0.035 -2.63253e-24 	0 	0 	
0.045 -1.41076e-13 	0 	0 	
0.055 1.05807e-13 	0 	0 	
0.065 -1.41076e-13 	0 	0 	
0.075 1.41076e-13 	0 	0 	
0.085 3.52689e-14 	0 	0 	
0.095 3.5269e-14 	0 	0 	
0.105 1.76345e-13 	0 	0 	
0.115 3.5269e-14 	0 	0 	
0.125 3.5269e-14 	-4.64984e-30 	0 	
0.135 -3.5269e-13 	0 	0 	
0.145 -3.5269e-14 	0 	0 	
0.155 -3.5269e-14 	0 	0 	
0.165 -7.0538e-14 	0 	0 	
0.175 -2.63147e-24 	-1.02786e-29 	0 	
0.185 1.76345e-13 	-9.05493e-30 	0 	
0.195 1.76345e-13 	0 	0 	
0.205 1.05807e-13 	0 	0 	
0.215 -1.41076e-13 	0 	0 	
0.225 -7.0538e-14 	0 	0 	
0.235 1.41076e-13 	0 	0 	
0.245 7.0538e-14 	0 	0 	
0.255 -2.62896e-24 	-1.0768e-29 	0 	
0.265 -7.0538e-14 	-1.00339e-29 	0 	
0.275 -3.94342e-24 	0 	0 	
0.285 -7.0538e-14 	0 	0 	
0.295 6.47186e-11 	0 	0 	
0.305 2.29183e-08 	0 	0 	
0.315 2.73689e-06 	0 	0 	
0.325 0.000141486 	0 	0 	
0.335 0.00363932 	0 	0 	
0.345 0.050783 	0 	0 	
0.355 0.408301 	-9.06439e-30 	0 	
0.365 2.00201 	0 	0 	
0.375 6.45171 	0 	0 	
0.385 15.0201 	0 	0 	
0.395 27.7331 	0 	0 	
0.405 43.7155 	-3.6213e-30 	0 	
0.415 61.8598 	1.17875e-30 	0 	
0.425 81.0633 	-3.13096e-31 	0 	
0.435 99.9884 	1.66374e-31 	0 	
0.445 116.375 	-3.51263e-31 	0 	
0.455 -21292.5 	-1.84126e-33 	0 	
0.465 -6.74435e+13 	-1.51576e-27 	0 	
0.475 -2.68223e+29 	0 	0 	
0.485 -4.56806e+46 	-7.40026e-64 	0 	
0.495 -4.06851e+51 	4.29949e-69 	0 	
0.505 -1.74651e+58 	-1.0953e-79 	0 	
0.515 -4.62972e+59 	0 	0 	
0.525 -2.22391e+63 	0 	0 	
0.535 9.56987e+69 	0 	0 	
0.545 1.35044e+68 	0 	0 	
0.555 -2.30896e+63 	0 	0 	
0.565 -2.51607e+71 	0 	0 	
0.575 1.85296e+75 	0 	0 	
0.585 4.89443e+68 	0 	0 	
0.595 6.99273e+65 	0 	0 	
0.605 1.9706e+63 	0 	0 	
0.615 4.80764e+55 	0 	0 	
0.625 3.48371e+48 	0 	0 	
0.635 1.83533e+43 	0 	0 	
0.645 3.15321e+34 	0 	0 	
0.655 5.39527e+21 	0 	0 	
0.665 1.10154e+16 	0 	0 	
0.675 -1.41516e+16 	0 	0 	
0.685 4.79317e-05 	0 	0 	
0.695 2.81948e-07 	0 	0 	
0.705 6.06249e-10 	0 	0 	
0.715 1.85163e-13 	0 	0 	
0.725 -5.29035e-14 	0 	0 	
0.735 1.5871e-13 	0 	0 	
0.745 5.29035e-14 	0 	0 	
0.755 -1.5871e-13 	0 	0 	
0.765 1.05807e-13 	0 	0 	
0.775 -5.29036e-14 	0 	0 	
0.785 1.05807e-13 	0 	0 	
0.795 1.85162e-13 	0 	0 	
0.805 7.93555e-14 	0 	0 	
0.815 7.93553e-14 	0 	0 	
0.825 2.6452e-14 	0 	0 	
0.835 3.91173e-24 	0 	0 	
0.845 1.32259e-13 	0 	0 	
0.855 2.93374e-24 	0 	0 	
0.865 7.93552e-14 	0 	0 	
0.875 -7.93553e-14 	0 	0 	
0.885 -2.93381e-24 	0 	0 	
0.895 -7.93555e-14 	0 	0 	
0.905 1.85162e-13 	0 	0 	
0.915 3.91178e-24 	0 	0 	
0.925 -7.93555e-14 	0 	0 	
0.935 -2.6452e-14 	0 	0 	
0.945 -5.29035e-14 	0 	0 	
0.955 -2.6452e-14 	0 	0 	
0.965 7.93552e-14 	0 	0 	
0.975 -5.29037e-14 	0 	0 	
0.985 7.93553e-14 	0 	0 	
0.995 7.93555e-14 	0 	0 	
