0.005 1.41076e-13 	0 	0 	
0.015 1.05807e-13 	0 	0 	
0.025 1.76345e-13 	0 	0 	
0.035 -2.6322e-24 	0 	0 	
0.045 7.0538e-14 	0 	0 	
0.055 7.0538e-14 	0 	0 	
0.065 1.76345e-13 	0 	0 	
0.075 1.41077e-13 	0 	0 	
0.085 -2.46883e-13 	0 	0 	
0.095 1.41076e-13 	0 	0 	
0.105 2.46883e-13 	0 	0 	
0.115 1.41076e-13 	0 	0 	
0.125 -3.5269e-14 	-3.91565e-30 	0 	
0.135 -1.05807e-13 	0 	0 	
0.145 7.0538e-14 	0 	0 	
0.155 1.41076e-13 	0 	0 	
0.165 -7.0538e-14 	0 	0 	
0.175 -2.82152e-13 	-8.56548e-30 	0 	
0.185 -2.11614e-13 	-7.83129e-30 	0 	
0.195 3.5269e-14 	0 	0 	
0.205 7.05385e-14 	0 	0 	
0.215 1.31508e-24 	0 	0 	
0.225 7.0538e-14 	0 	0 	
0.235 -3.5269e-14 	0 	0 	
0.245 -7.0538e-14 	0 	0 	
0.255 -2.62898e-24 	-9.05493e-30 	0 	
0.265 -5.25792e-24 	-8.81022e-30 	0 	
0.275 -1.76345e-13 	0 	0 	
0.285 -1.41076e-13 	0 	0 	
0.295 -7.0538e-14 	0 	0 	
0.305 3.5269e-14 	0 	0 	
0.315 1.0228e-12 	0 	0 	
0.325 2.54639e-09 	0 	0 	
0.335 8.24253e-07 	0 	0 	
0.345 7.93244e-05 	0 	0 	
0.355 0.00305561 	-7.83136e-30 	0 	
0.365 0.0551179 	0 	0 	
0.375 0.513347 	0 	0 	
0.385 2.68484 	0 	0 	
0.395 8.74997 	0 	0 	
0.405 20.0904 	-1.8145e-30 	0 	
0.415 36.3282 	4.62732e-30 	0 	
0.425 56.087 	-8.67775e-31 	0 	
0.435 77.7666 	6.1929e-31 	0 	
0.445 99.4312 	-1.40054e-45 	0 	
0.455 117.783 	8.82112e-31 	0 	
0.465 127.956 	-3.65763e-31 	0 	
0.475 130.124 	0 	0 	
0.485 -2050.4 	-2.76846e-31 	0 	
0.495 -4509.28 	-6.3616e-33 	0 	
0.505 -2.63465e+26 	2.65197e-52 	0 	
0.515 -1.25963e+43 	0 	0 	
0.525 -1.55026e+48 	0 	0 	
0.535 -4.4939e+49 	0 	0 	
0.545 3.95867e+47 	0 	0 	
0.555 1.91384e+45 	0 	0 	
0.565 3.94028e+41 	0 	0 	
0.575 -1.26187e+43 	0 	0 	
0.585 -5.33911e+44 	0 	0 	
0.595 1.1536e+43 	0 	0 	
0.605 3.65452e+40 	0 	0 	
0.615 6.20278e+23 	0 	0 	
0.625 5.48181e+18 	0 	0 	
0.635 1.28351e+13 	0 	0 	
0.645 1.79782e+06 	0 	0 	
0.655 0.0015253 	0 	0 	
0.665 1.04417e-05 	0 	0 	
0.675 2.35359e-08 	0 	0 	
0.685 8.09424e-12 	0 	0 	
0.695 2.6452e-14 	0 	0 	
0.705 -7.93553e-14 	0 	0 	
0.715 -2.6452e-14 	0 	0 	
0.725 -2.6452e-14 	0 	0 	
0.735 9.79661e-25 	0 	0 	
0.745 -2.64515e-14 	0 	0 	
0.755 5.29035e-14 	0 	0 	
0.765 -2.64515e-14 	0 	0 	
0.775 5.29035e-14 	0 	0 	
0.785 1.05807e-13 	0 	0 	
0.795 -2.6452e-14 	0 	0 	
0.805 2.38066e-13 	0 	0 	
0.815 7.93555e-14 	0 	0 	
0.825 1.58711e-13 	0 	0 	
0.835 1.05807e-13 	0 	0 	
0.845 7.93555e-14 	0 	0 	
0.855 1.05807e-13 	0 	0 	
0.865 1.05807e-13 	0 	0 	
0.875 7.93553e-14 	0 	0 	
0.885 3.91176e-24 	0 	0 	
0.895 1.05807e-13 	0 	0 	
0.905 2.64518e-14 	0 	0 	
0.915 5.29035e-14 	0 	0 	
0.925 2.64515e-14 	0 	0 	
0.935 -5.29036e-14 	0 	0 	
0.945 7.93555e-14 	0 	0 	
0.955 7.93553e-14 	0 	0 	
0.965 2.64517e-14 	0 	0 	
0.975 -7.93552e-14 	0 	0 	
0.985 1.5871e-13 	0 	0 	
0.995 9.76384e-25 	0 	0 	
