0.005 4.90141e-14 	0 	0 	
0.015 8.22944e-14 	0 	0 	
0.025 9.69898e-14 	0 	0 	
0.035 1.05807e-13 	0 	0 	
0.045 1.08746e-13 	0 	0 	
0.055 8.22943e-14 	0 	0 	
0.065 3.82081e-14 	0 	0 	
0.075 -1.46954e-14 	0 	0 	
0.085 -5.58426e-14 	0 	0 	
0.095 -5.29035e-14 	0 	0 	
0.105 -7.3477e-14 	0 	0 	
0.115 -1.2638e-13 	0 	0 	
0.125 -1.52832e-13 	0 	0 	
0.135 -1.88101e-13 	0 	0 	
0.145 -2.35127e-13 	-3.26305e-31 	0 	
0.155 -2.32188e-13 	0 	0 	
0.165 -1.88101e-13 	0 	0 	
0.175 -1.44015e-13 	0 	0 	
0.185 -8.81725e-14 	0 	0 	
0.195 -1.17563e-14 	0 	0 	
0.205 3.5269e-14 	0 	0 	
0.215 3.82081e-14 	0 	0 	
0.225 4.40863e-14 	0 	0 	
0.235 4.99645e-14 	6.52609e-31 	0 	
0.245 5.87817e-14 	0 	0 	
0.255 9.9929e-14 	0 	0 	
0.265 1.23442e-13 	0 	0 	
0.275 8.81727e-14 	0 	0 	
0.285 6.46599e-14 	0 	0 	
0.295 7.05381e-14 	0 	0 	
0.305 6.7599e-14 	0 	0 	
0.315 5.87817e-14 	0 	0 	
0.325 3.82081e-14 	0 	0 	
0.335 1.17564e-14 	0 	0 	
0.345 -2.93909e-14 	0 	0 	
0.355 -8.52336e-14 	0 	0 	
0.365 -1.05807e-13 	0 	0 	
0.375 -9.40508e-14 	0 	0 	
0.385 0.134119 	0 	0 	
0.395 2.76946 	0 	0 	
0.405 12.0897 	0 	0 	
0.415 28.6075 	0 	0 	
0.425 48.9984 	0 	0 	
0.435 70.3696 	0 	0 	
0.445 90.8739 	0 	0 	
0.455 108.628 	0 	0 	
0.465 121.725 	0 	0 	
0.475 128.759 	0 	0 	
0.485 130.579 	0 	0 	
0.495 130.329 	0 	0 	
0.505 130.089 	0 	0 	
0.515 130.195 	0 	0 	
0.525 130.4 	0 	0 	
0.535 130.312 	0 	0 	
0.545 129.906 	0 	0 	
0.555 129.612 	0 	0 	
0.565 129.868 	0 	0 	
0.575 130.413 	-1.69051e-30 	0 	
0.585 130.163 	-5.0735e-31 	0 	
0.595 125.419 	0 	0 	
0.605 105.199 	0 	0 	
0.615 63.4081 	0 	0 	
0.625 21.4199 	0 	0 	
0.635 2.62225 	0 	0 	
0.645 -4.84948e-14 	0 	0 	
0.655 -1.10215e-14 	0 	0 	
0.665 -4.40863e-14 	0 	0 	
0.675 -4.62906e-14 	0 	0 	
0.685 1.54302e-14 	0 	0 	
0.695 5.51079e-14 	0 	0 	
0.705 4.1882e-14 	0 	0 	
0.715 3.96777e-14 	0 	0 	
0.725 8.15597e-14 	0 	0 	
0.735 1.05807e-13 	0 	0 	
0.745 8.15597e-14 	0 	0 	
0.755 4.1882e-14 	0 	0 	
0.765 1.10216e-14 	0 	0 	
0.775 -6.61295e-15 	0 	0 	
0.785 -3.30647e-14 	0 	0 	
0.795 -5.73122e-14 	0 	0 	
0.805 -4.40863e-14 	0 	0 	
0.815 -1.54302e-14 	-4.89455e-31 	0 	
0.825 4.40863e-15 	0 	0 	
0.835 2.42475e-14 	0 	0 	
0.845 4.1882e-14 	0 	0 	
0.855 5.29036e-14 	0 	0 	
0.865 5.29036e-14 	0 	0 	
0.875 1.54302e-14 	0 	0 	
0.885 -4.84949e-14 	0 	0 	
0.895 -7.49467e-14 	0 	0 	
0.905 -4.1882e-14 	0 	0 	
0.915 4.40862e-15 	0 	0 	
0.925 1.98388e-14 	0 	0 	
0.935 2.64518e-14 	0 	0 	
0.945 2.64518e-14 	0 	0 	
0.955 1.10216e-14 	0 	0 	
0.965 3.5269e-14 	0 	0 	
0.975 6.61294e-14 	0 	0 	
0.985 3.96777e-14 	0 	0 	
0.995 6.61295e-15 	0 	0 	
