0.005 -0.0086905 	0 	0 	
0.015 0.005785 	0 	0 	
0.025 -0.00296846 	0 	0 	
0.035 -0.0086503 	0 	0 	
0.045 0.0107615 	0 	0 	
0.055 -0.0107985 	0 	0 	
0.065 -0.0568033 	0 	0 	
0.075 -0.063577 	0 	0 	
0.085 0.0375355 	0 	0 	
0.095 -0.017933 	0 	0 	
0.105 0.0133145 	0 	0 	
0.115 0.029292 	0 	0 	
0.125 -0.0504704 	0 	0 	
0.135 0.006763 	0 	0 	
0.145 -0.022628 	0 	0 	
0.155 0.020078 	0 	0 	
0.165 0.0362584 	0 	0 	
0.175 -0.06106 	0 	0 	
0.185 -0.0077065 	0 	0 	
0.195 -0.0111675 	0 	0 	
0.205 -0.0379975 	0 	0 	
0.215 -0.0015885 	0 	0 	
0.225 0.030016 	0 	0 	
0.235 -0.055736 	0 	0 	
0.245 -0.006423 	0 	0 	
0.255 0.058824 	0 	0 	
0.265 -0.0146065 	0 	0 	
0.275 0.002459 	0 	0 	
0.285 -0.004015 	0 	0 	
0.295 -0.00321 	0 	0 	
0.305 -0.004171 	0 	0 	
0.315 0.005112 	0 	0 	
0.325 -0.0015945 	0 	0 	
0.335 0.030625 	0 	0 	
0.345 0.004836 	0 	0 	
0.355 -0.016084 	0 	0 	
0.365 0.0037295 	0 	0 	
0.375 -0.0140595 	0 	0 	
0.385 -0.012432 	0 	0 	
0.395 0.0165665 	0 	0 	
0.405 -0.0397165 	0 	0 	
0.415 -0.0169955 	0 	0 	
0.425 -0.00688 	0 	0 	
0.435 -896252 	0 	0 	
0.445 -3.61499e+17 	0 	0 	
0.455 -2.63427e+21 	0 	0 	
0.465 -1.56726e+33 	0 	0 	
0.475 -1.34804e+42 	0 	0 	
0.485 -1.84303e+51 	0 	0 	
0.495 7.56752e+61 	0 	0 	
0.505 8.62755e+64 	0 	0 	
0.515 4.92544e+63 	0 	0 	
0.525 1.18247e+54 	0 	0 	
0.535 6.77928e+41 	0 	0 	
0.545 2.3223e+28 	0 	0 	
0.555 1.27501e+20 	0 	0 	
0.565 1.31827e+07 	0 	0 	
0.575 0.016458 	0 	0 	
0.585 0.0598973 	0 	0 	
0.595 -0.0107765 	0 	0 	
0.605 -0.0230709 	0 	0 	
0.615 -0.05618 	0 	0 	
0.625 0.059822 	0 	0 	
0.635 -0.004623 	0 	0 	
0.645 0.0623122 	0 	0 	
0.655 -0.033618 	0 	0 	
0.665 0.0222885 	0 	0 	
0.675 -0.008587 	0 	0 	
0.685 0.005175 	0 	0 	
0.695 -0.0439379 	0 	0 	
0.705 -0.012819 	0 	0 	
0.715 0.00605085 	0 	0 	
0.725 -0.0918925 	0 	0 	
0.735 -0.043358 	0 	0 	
0.745 0.0396085 	0 	0 	
0.755 0.002955 	0 	0 	
0.765 0.000814 	0 	0 	
0.775 -0.0036045 	0 	0 	
0.785 0.052928 	0 	0 	
0.795 0.062669 	0 	0 	
0.805 0.0472185 	0 	0 	
0.815 -0.0160065 	0 	0 	
0.825 -0.0050875 	0 	0 	
0.835 0.0217719 	0 	0 	
0.845 -0.0142685 	0 	0 	
0.855 -0.0488806 	0 	0 	
0.865 0.0219045 	0 	0 	
0.875 -0.10619 	0 	0 	
0.885 -0.010573 	0 	0 	
0.895 -0.0295025 	0 	0 	
0.905 0.0108835 	0 	0 	
0.915 0.010057 	0 	0 	
0.925 0.0489118 	0 	0 	
0.935 0.0217095 	0 	0 	
0.945 0.0093305 	0 	0 	
0.955 -0.0537716 	0 	0 	
0.965 0.0366848 	0 	0 	
0.975 0.0331415 	0 	0 	
0.985 -0.0523683 	0 	0 	
0.995 0.008211 	0 	0 	
