0.005 3.46813e-15 	0 	0 	
0.015 -4.16174e-14 	0 	0 	
0.025 -6.93623e-14 	0 	0 	
0.035 4.50856e-14 	0 	0 	
0.045 -2.42768e-14 	0 	0 	
0.055 -1.56066e-14 	0 	0 	
0.065 1.0231e-13 	0 	0 	
0.075 7.80328e-14 	0 	0 	
0.085 -1.14448e-13 	1.49202e-29 	0 	
0.095 8.6703e-15 	0 	0 	
0.105 1.00576e-13 	0 	0 	
0.115 2.94791e-14 	-7.70077e-30 	0 	
0.125 3.46813e-14 	7.70077e-30 	0 	
0.135 1.82076e-13 	0 	0 	
0.145 1.64736e-13 	0 	0 	
0.155 2.42768e-14 	0 	0 	
0.165 1.35257e-13 	0 	0 	
0.175 6.06922e-14 	0 	0 	
0.185 -1.07512e-13 	0 	0 	
0.195 -3.98837e-14 	0 	0 	
0.205 2.01151e-13 	0 	0 	
0.215 -1.90745e-14 	0 	0 	
0.225 9.53734e-14 	0 	0 	
0.235 4.33514e-14 	0 	0 	
0.245 -2.94791e-14 	0 	0 	
0.255 -1.35257e-13 	0 	0 	
0.265 2.08087e-14 	0 	0 	
0.275 1.73406e-14 	0 	0 	
0.285 8.84372e-14 	0 	0 	
0.295 -6.76282e-14 	0 	0 	
0.305 -3.64156e-14 	0 	0 	
0.315 2.42769e-14 	0 	0 	
0.325 2.96524e-12 	0 	0 	
0.335 6.77243e-09 	0 	0 	
0.345 2.067e-06 	0 	0 	
0.355 0.000183473 	0 	0 	
0.365 0.00642777 	0 	0 	
0.375 0.104353 	0 	0 	
0.385 0.869117 	0 	0 	
0.395 4.0787 	0 	0 	
0.405 12.1364 	0 	0 	
0.415 26.0214 	0 	0 	
0.425 44.8226 	0 	0 	
0.435 66.827 	0 	0 	
0.445 90.0204 	0 	0 	
0.455 111.372 	0 	0 	
0.465 125.625 	0 	0 	
0.475 129.929 	0 	0 	
0.485 130.197 	0 	0 	
0.495 130.168 	0 	0 	
0.505 130.144 	0 	0 	
0.515 130.121 	0 	0 	
0.525 130.092 	0 	0 	
0.535 130.046 	0 	0 	
0.545 129.963 	0 	0 	
0.555 129.844 	0 	0 	
0.565 129.737 	0 	0 	
0.575 129.563 	0 	0 	
0.585 7145.41 	0 	0 	
0.595 -27135.8 	0 	0 	
0.605 613418 	0 	0 	
0.615 26411.6 	0 	0 	
0.625 8.15518 	0 	0 	
0.635 0.212731 	0 	0 	
0.645 0.00338023 	0 	0 	
0.655 2.52095e-05 	0 	0 	
0.665 6.02594e-08 	0 	0 	
0.675 2.07112e-11 	0 	0 	
0.685 2.21093e-14 	0 	0 	
0.695 -4.81204e-14 	0 	0 	
0.705 -1.23552e-13 	0 	0 	
0.715 1.48262e-13 	0 	0 	
0.725 1.30055e-14 	0 	0 	
0.735 7.8033e-14 	0 	0 	
0.745 -3.12134e-14 	0 	0 	
0.755 -3.12134e-14 	0 	0 	
0.765 -1.06645e-13 	0 	0 	
0.775 -2.60111e-14 	0 	0 	
0.785 1.26153e-13 	0 	0 	
0.795 5.07214e-14 	0 	0 	
0.805 2.341e-14 	0 	0 	
0.815 -1.80776e-13 	0 	0 	
0.825 1.62568e-13 	0 	0 	
0.835 5.20235e-15 	0 	0 	
0.845 7.54315e-14 	0 	0 	
0.855 1.95084e-14 	0 	0 	
0.865 -6.89291e-14 	0 	0 	
0.875 1.30055e-14 	0 	0 	
0.885 1.43061e-14 	0 	0 	
0.895 5.46231e-14 	0 	0 	
0.905 -9.75407e-14 	0 	0 	
0.915 -1.22251e-13 	0 	0 	
0.925 -6.50253e-15 	0 	0 	
0.935 8.58358e-14 	0 	0 	
0.945 6.37267e-14 	0 	0 	
0.955 -2.73114e-14 	0 	0 	
0.965 4.42187e-14 	0 	0 	
0.975 3.90165e-14 	0 	0 	
0.985 6.76281e-14 	0 	0 	
0.995 -4.94205e-14 	0 	0 	
