0.005 -1.46954e-14 	0 	0 	
0.015 2.49996e-19 	0 	0 	
0.025 -2.9391e-14 	0 	0 	
0.035 -7.34772e-14 	0 	0 	
0.045 -5.87816e-14 	0 	0 	
0.055 -4.40863e-14 	0 	0 	
0.065 2.93908e-14 	0 	0 	
0.075 1.02868e-13 	0 	0 	
0.085 5.87818e-14 	0 	0 	
0.095 1.02868e-13 	0 	0 	
0.105 5.87815e-14 	0 	0 	
0.115 8.81727e-14 	0 	0 	
0.125 1.46954e-13 	0 	0 	
0.135 1.17564e-13 	0 	0 	
0.145 1.32259e-13 	0 	0 	
0.155 1.32259e-13 	0 	0 	
0.165 2.79213e-13 	0 	0 	
0.175 1.91041e-13 	0 	0 	
0.185 1.9104e-13 	0 	0 	
0.195 1.82733e-24 	0 	0 	
0.205 -8.81726e-14 	0 	0 	
0.215 -2.9391e-14 	0 	0 	
0.225 -1.46954e-13 	0 	0 	
0.235 -1.74998e-19 	0 	0 	
0.245 -1.46955e-14 	0 	0 	
0.255 -1.17563e-13 	0 	0 	
0.265 4.11472e-12 	0 	0 	
0.275 5.8119e-10 	0 	0 	
0.285 4.31605e-08 	0 	0 	
0.295 1.90789e-06 	0 	0 	
0.305 5.27548e-05 	0 	0 	
0.315 0.000945316 	0 	0 	
0.325 0.0112622 	0 	0 	
0.335 0.0909206 	0 	0 	
0.345 0.505899 	0 	0 	
0.355 1.98545 	0 	0 	
0.365 5.7115 	0 	0 	
0.375 12.7186 	0 	0 	
0.385 23.2804 	0 	0 	
0.395 36.9369 	0 	0 	
0.405 52.8919 	0 	0 	
0.415 70.2814 	0 	0 	
0.425 88.1592 	0 	0 	
0.435 105.204 	0 	0 	
0.445 119.213 	0 	0 	
0.455 127.455 	0 	0 	
0.465 129.953 	0 	0 	
0.475 130.199 	0 	0 	
0.485 130.18 	0 	0 	
0.495 130.16 	0 	0 	
0.505 130.144 	0 	0 	
0.515 130.131 	0 	0 	
0.525 130.12 	0 	0 	
0.535 130.111 	0 	0 	
0.545 130.102 	0 	0 	
0.555 130.094 	0 	0 	
0.565 130.086 	0 	0 	
0.575 130.077 	0 	0 	
0.585 130.068 	0 	0 	
0.595 130.058 	0 	0 	
0.605 130.037 	0 	0 	
0.615 129.929 	0 	0 	
0.625 129.205 	0 	0 	
0.635 125.048 	0 	0 	
0.645 106.118 	0 	0 	
0.655 52.5389 	0 	0 	
0.665 7.80905 	0 	0 	
0.675 0.528442 	0 	0 	
0.685 0.0265633 	0 	0 	
0.695 0.00100601 	0 	0 	
0.705 2.70458e-05 	0 	0 	
0.715 4.84549e-07 	0 	0 	
0.725 5.40215e-09 	0 	0 	
0.735 3.42881e-11 	0 	0 	
0.745 -2.20432e-14 	0 	0 	
0.755 -1.32259e-13 	0 	0 	
0.765 -1.76345e-13 	0 	0 	
0.775 -8.81725e-14 	0 	0 	
0.785 -9.91941e-14 	0 	0 	
0.795 -1.21237e-13 	0 	0 	
0.805 -5.51079e-14 	0 	0 	
0.815 -9.91942e-14 	0 	0 	
0.825 -1.10216e-13 	0 	0 	
0.835 -6.61293e-14 	0 	0 	
0.845 3.30647e-14 	0 	0 	
0.855 8.81725e-14 	0 	0 	
0.865 4.40862e-14 	0 	0 	
0.875 4.40863e-14 	0 	0 	
0.885 3.30646e-14 	0 	0 	
0.895 3.30648e-14 	0 	0 	
0.905 7.71509e-14 	0 	0 	
0.915 -1.10216e-14 	0 	0 	
0.925 3.30648e-14 	0 	0 	
0.935 5.51079e-14 	0 	0 	
0.945 3.30648e-14 	0 	0 	
0.955 7.7151e-14 	0 	0 	
0.965 2.20432e-14 	0 	0 	
0.975 5.51079e-14 	0 	0 	
0.985 0 	0 	0 	
0.995 -1.10216e-14 	0 	0 	
