0.005 4.55778e-14 	0 	0 	
0.015 8.52334e-14 	0 	0 	
0.025 9.99289e-14 	0 	0 	
0.035 8.52335e-14 	0 	0 	
0.045 3.23299e-14 	0 	0 	
0.055 -2.35127e-14 	0 	0 	
0.065 -2.93909e-14 	0 	0 	
0.075 -1.76345e-14 	0 	0 	
0.085 -1.46954e-14 	0 	0 	
0.095 8.81725e-15 	0 	0 	
0.105 2.93908e-14 	0 	0 	
0.115 1.46954e-14 	0 	0 	
0.125 -2.35127e-14 	0 	0 	
0.135 -8.52335e-14 	0 	0 	
0.145 -1.46954e-13 	-3.26305e-31 	0 	
0.155 -1.6165e-13 	0 	0 	
0.165 -1.35198e-13 	0 	0 	
0.175 -1.02868e-13 	0 	0 	
0.185 -5.29036e-14 	0 	0 	
0.195 2.35127e-14 	0 	0 	
0.205 6.46599e-14 	0 	0 	
0.215 5.87817e-14 	0 	0 	
0.225 7.3477e-14 	0 	0 	
0.235 8.81724e-14 	6.52609e-31 	0 	
0.245 5.29035e-14 	0 	0 	
0.255 8.81728e-15 	0 	0 	
0.265 -5.87815e-15 	0 	0 	
0.275 -2.93908e-15 	0 	0 	
0.285 0 	0 	0 	
0.295 1.76345e-14 	0 	0 	
0.305 5.58426e-14 	0 	0 	
0.315 7.34772e-14 	0 	0 	
0.325 5.29035e-14 	0 	0 	
0.335 5.87815e-15 	0 	0 	
0.345 -4.40863e-14 	0 	0 	
0.355 -6.17208e-14 	0 	0 	
0.365 -5.29036e-14 	0 	0 	
0.375 -4.40863e-14 	0 	0 	
0.385 -3.82081e-14 	0 	0 	
0.395 -4.40863e-14 	0 	0 	
0.405 -3.82081e-14 	0 	0 	
0.415 8.81725e-15 	0 	0 	
0.425 0.0732325 	0 	0 	
0.435 3.37529 	0 	0 	
0.445 16.4812 	0 	0 	
0.455 40.9266 	0 	0 	
0.465 70.6507 	0 	0 	
0.475 98.4897 	0 	0 	
0.485 118.533 	0 	0 	
0.495 128.244 	0 	0 	
0.505 130.821 	0 	0 	
0.515 131.206 	0 	0 	
0.525 131.763 	0 	0 	
0.535 131.855 	0 	0 	
0.545 126.544 	0 	0 	
0.555 103.474 	0 	0 	
0.565 59.0093 	0 	0 	
0.575 17.9993 	-4.80329e-31 	0 	
0.585 1.69308 	0 	0 	
0.595 4.40863e-15 	0 	0 	
0.605 -3.30647e-14 	0 	0 	
0.615 -7.0538e-14 	0 	0 	
0.625 -7.49467e-14 	0 	0 	
0.635 -6.39251e-14 	0 	0 	
0.645 -3.74734e-14 	0 	0 	
0.655 -2.20433e-15 	0 	0 	
0.665 -1.76345e-14 	0 	0 	
0.675 -3.08604e-14 	0 	0 	
0.685 2.64517e-14 	0 	0 	
0.695 6.83337e-14 	0 	0 	
0.705 4.1882e-14 	0 	0 	
0.715 2.20432e-14 	0 	0 	
0.725 4.40863e-14 	0 	0 	
0.735 6.61294e-14 	0 	0 	
0.745 5.06992e-14 	0 	0 	
0.755 1.10216e-14 	0 	0 	
0.765 -2.20431e-14 	0 	0 	
0.775 -3.5269e-14 	0 	0 	
0.785 -2.64518e-14 	0 	0 	
0.795 -2.86561e-14 	0 	0 	
0.805 -3.5269e-14 	0 	0 	
0.815 -1.76345e-14 	-4.89455e-31 	0 	
0.825 2.20432e-15 	0 	0 	
0.835 6.61296e-15 	0 	0 	
0.845 4.40865e-15 	0 	0 	
0.855 2.42475e-14 	0 	0 	
0.865 4.1882e-14 	0 	0 	
0.875 2.20431e-14 	0 	0 	
0.885 -2.20432e-15 	0 	0 	
0.895 -2.20432e-15 	0 	0 	
0.905 8.81725e-15 	0 	0 	
0.915 8.81726e-15 	0 	0 	
0.925 5.43383e-26 	0 	0 	
0.935 -6.61294e-15 	0 	0 	
0.945 6.61295e-15 	0 	0 	
0.955 2.86561e-14 	0 	0 	
0.965 2.20432e-14 	0 	0 	
0.975 4.40863e-15 	0 	0 	
0.985 0 	0 	0 	
0.995 0 	0 	0 	
