0.005 2.3513e-14 	0 	0 	
0.015 9.40507e-14 	0 	0 	
0.025 -4.70254e-14 	0 	0 	
0.035 -9.40507e-14 	0 	0 	
0.045 -2.35127e-14 	0 	0 	
0.055 2.35127e-14 	0 	0 	
0.065 7.0538e-14 	0 	0 	
0.075 7.0538e-14 	0 	0 	
0.085 -7.05381e-14 	0 	0 	
0.095 4.70254e-14 	0 	0 	
0.105 -4.70253e-14 	0 	0 	
0.115 7.0538e-14 	0 	0 	
0.125 -2.35127e-14 	0 	0 	
0.135 -5.85313e-25 	0 	0 	
0.145 2.35127e-14 	0 	0 	
0.155 -7.05381e-14 	0 	0 	
0.165 -2.35127e-14 	0 	0 	
0.175 -7.05381e-14 	0 	0 	
0.185 2.35127e-14 	0 	0 	
0.195 2.35127e-14 	0 	0 	
0.205 -2.35126e-14 	4.56826e-30 	0 	
0.215 -1.75344e-24 	0 	0 	
0.225 2.35127e-14 	0 	0 	
0.235 2.35127e-14 	0 	0 	
0.245 2.35126e-14 	0 	0 	
0.255 2.35125e-14 	0 	0 	
0.265 -7.05383e-14 	0 	0 	
0.275 -7.0538e-14 	0 	0 	
0.285 -4.70253e-14 	0 	0 	
0.295 -1.41076e-13 	0 	0 	
0.305 4.70254e-14 	0 	0 	
0.315 -7.05381e-14 	0 	0 	
0.325 2.35127e-14 	0 	0 	
0.335 -4.70253e-14 	0 	0 	
0.345 -4.70254e-14 	0 	0 	
0.355 2.3513e-14 	0 	0 	
0.365 1.88101e-13 	0 	0 	
0.375 7.76857e-11 	0 	0 	
0.385 5.89812e-08 	0 	0 	
0.395 1.10112e-05 	0 	0 	
0.405 0.000747798 	0 	0 	
0.415 0.0222974 	0 	0 	
0.425 0.323067 	0 	0 	
0.435 2.43685 	0 	0 	
0.445 10.4254 	0 	0 	
0.455 28.6576 	0 	0 	
0.465 57.6266 	0 	0 	
0.475 92.6611 	0 	0 	
0.485 121.45 	0 	0 	
0.495 130.025 	0 	0 	
0.505 130.205 	-4.95446e-31 	0 	
0.515 130.156 	9.38811e-31 	0 	
0.525 130.082 	-1.59353e-30 	0 	
0.535 129.482 	-8.44875e-31 	0 	
0.545 124.116 	-8.56932e-31 	0 	
0.555 97.2754 	0 	0 	
0.565 37.354 	0 	0 	
0.575 4.25114 	0 	0 	
0.585 0.209506 	0 	0 	
0.595 0.00539801 	0 	0 	
0.605 6.51788e-05 	0 	0 	
0.615 2.97708e-07 	0 	0 	
0.625 3.41281e-10 	0 	0 	
0.635 8.81725e-14 	0 	0 	
0.645 3.5269e-14 	0 	0 	
0.655 7.05381e-14 	0 	0 	
0.665 1.05807e-13 	0 	0 	
0.675 1.05807e-13 	0 	0 	
0.685 -1.76345e-14 	0 	0 	
0.695 1.76345e-14 	0 	0 	
0.705 8.81725e-14 	0 	0 	
0.715 -5.29035e-14 	0 	0 	
0.725 -1.05807e-13 	0 	0 	
0.735 -1.76345e-14 	0 	0 	
0.745 -1.05807e-13 	0 	0 	
0.755 -2.17712e-24 	-1.7131e-30 	0 	
0.765 -3.5269e-14 	0 	0 	
0.775 1.76344e-14 	0 	0 	
0.785 7.0538e-14 	0 	0 	
0.795 5.29035e-14 	-1.7131e-30 	0 	
0.805 3.52691e-14 	-1.7131e-30 	0 	
0.815 -1.76345e-14 	0 	0 	
0.825 -7.0538e-14 	0 	0 	
0.835 -7.05379e-14 	0 	0 	
0.845 -4.34648e-25 	0 	0 	
0.855 1.76344e-14 	0 	0 	
0.865 5.29035e-14 	0 	0 	
0.875 5.29034e-14 	0 	0 	
0.885 -1.76344e-14 	0 	0 	
0.895 -5.29035e-14 	0 	0 	
0.905 -5.29035e-14 	0 	0 	
0.915 1.76345e-14 	0 	0 	
0.925 -7.0538e-14 	0 	0 	
0.935 7.05381e-14 	0 	0 	
0.945 -5.29035e-14 	0 	0 	
0.955 3.5269e-14 	0 	0 	
0.965 7.0538e-14 	0 	0 	
0.975 -1.76345e-14 	0 	0 	
0.985 -1.76345e-14 	0 	0 	
0.995 1.23441e-13 	0 	0 	
