0.005 4.90141e-14 	0 	0 	
0.015 8.22944e-14 	0 	0 	
0.025 9.99288e-14 	0 	0 	
0.035 9.11115e-14 	0 	0 	
0.045 3.52689e-14 	0 	0 	
0.055 -2.35127e-14 	0 	0 	
0.065 -2.93909e-14 	0 	0 	
0.075 -2.05736e-14 	0 	0 	
0.085 -2.64518e-14 	0 	0 	
0.095 -1.17563e-14 	0 	0 	
0.105 1.17563e-14 	0 	0 	
0.115 1.76345e-14 	0 	0 	
0.125 2.1942e-25 	0 	0 	
0.135 -5.29034e-14 	0 	0 	
0.145 -1.11685e-13 	-2.77358e-30 	0 	
0.155 -1.55771e-13 	0 	0 	
0.165 -1.79284e-13 	0 	0 	
0.175 -1.46954e-13 	0 	0 	
0.185 -6.46599e-14 	0 	0 	
0.195 1.46954e-14 	0 	0 	
0.205 4.40863e-14 	0 	0 	
0.215 3.82081e-14 	0 	0 	
0.225 6.17207e-14 	0 	0 	
0.235 8.52333e-14 	5.54716e-30 	0 	
0.245 5.58425e-14 	0 	0 	
0.255 2.05736e-14 	0 	0 	
0.265 8.81723e-15 	0 	0 	
0.275 2.93908e-15 	0 	0 	
0.285 0 	0 	0 	
0.295 0 	0 	0 	
0.305 0 	0 	0 	
0.315 -2.93907e-15 	0 	0 	
0.325 2.9391e-15 	0 	0 	
0.335 8.81725e-15 	0 	0 	
0.345 -2.9391e-15 	0 	0 	
0.355 -5.87818e-15 	0 	0 	
0.365 0 	0 	0 	
0.375 -8.81725e-15 	0 	0 	
0.385 -2.64517e-14 	0 	0 	
0.395 -4.40863e-14 	0 	0 	
0.405 -4.40863e-14 	0 	0 	
0.415 -2.9391e-15 	0 	0 	
0.425 1.06306 	0 	0 	
0.435 8.50005 	0 	0 	
0.445 27.6901 	0 	0 	
0.455 56.0171 	0 	0 	
0.465 86.3201 	0 	0 	
0.475 111.98 	0 	0 	
0.485 126.859 	0 	0 	
0.495 130.354 	0 	0 	
0.505 129.439 	0 	0 	
0.515 129.318 	0 	0 	
0.525 129.863 	0 	0 	
0.535 130.902 	0 	0 	
0.545 130.9 	0 	0 	
0.555 123.642 	0 	0 	
0.565 98.4258 	0 	0 	
0.575 54.1317 	-4.20621e-31 	0 	
0.585 15.5196 	0 	0 	
0.595 1.23514 	0 	0 	
0.605 -3.74733e-14 	0 	0 	
0.615 -7.0538e-14 	0 	0 	
0.625 -7.05381e-14 	0 	0 	
0.635 -5.73122e-14 	0 	0 	
0.645 -2.86561e-14 	0 	0 	
0.655 2.2043e-15 	0 	0 	
0.665 -1.98388e-14 	0 	0 	
0.675 -4.62906e-14 	0 	0 	
0.685 -1.10216e-14 	0 	0 	
0.695 3.52691e-14 	0 	0 	
0.705 3.96777e-14 	0 	0 	
0.715 3.08604e-14 	0 	0 	
0.725 5.73123e-14 	0 	0 	
0.735 8.81728e-14 	0 	0 	
0.745 6.61295e-14 	0 	0 	
0.755 2.42475e-14 	0 	0 	
0.765 4.40863e-15 	0 	0 	
0.775 -4.40862e-15 	0 	0 	
0.785 -2.20431e-14 	0 	0 	
0.795 -2.64518e-14 	0 	0 	
0.805 2.2043e-15 	0 	0 	
0.815 2.42475e-14 	-4.16038e-30 	0 	
0.825 1.98389e-14 	0 	0 	
0.835 6.61295e-15 	0 	0 	
0.845 0 	0 	0 	
0.855 -2.20431e-15 	0 	0 	
0.865 -1.98388e-14 	0 	0 	
0.875 -4.40863e-14 	0 	0 	
0.885 -4.40863e-14 	0 	0 	
0.895 -2.20432e-14 	0 	0 	
0.905 -8.81727e-15 	0 	0 	
0.915 -1.76345e-14 	0 	0 	
0.925 -2.42475e-14 	0 	0 	
0.935 -1.32259e-14 	0 	0 	
0.945 1.32259e-14 	0 	0 	
0.955 4.40863e-14 	0 	0 	
0.965 4.40863e-14 	0 	0 	
0.975 2.20432e-14 	0 	0 	
0.985 2.64518e-14 	0 	0 	
0.995 3.5302e-14 	0 	0 	
