0.005 8.04136e-14 	0 	0 	
0.015 6.53358e-14 	0 	0 	
0.025 -4.18823e-14 	0 	0 	
0.035 1.67527e-15 	0 	0 	
0.045 1.03867e-13 	0 	0 	
0.055 8.87896e-14 	0 	0 	
0.065 1.03867e-13 	0 	0 	
0.075 8.37638e-14 	0 	0 	
0.085 4.52326e-14 	0 	0 	
0.095 1.00517e-13 	0 	0 	
0.105 -1.22296e-13 	0 	0 	
0.115 7.37124e-14 	0 	0 	
0.125 5.8635e-14 	0 	0 	
0.135 9.71664e-14 	0 	0 	
0.145 2.05682e-25 	0 	0 	
0.155 6.86865e-14 	0 	0 	
0.165 9.04653e-14 	0 	0 	
0.175 -8.37638e-14 	0 	0 	
0.185 1.00518e-14 	0 	0 	
0.195 2.84796e-14 	0 	0 	
0.205 -3.85318e-14 	0 	0 	
0.215 8.5439e-14 	0 	0 	
0.225 -4.18822e-14 	0 	0 	
0.235 -6.36604e-14 	0 	0 	
0.245 -1.67535e-15 	0 	0 	
0.255 -2.17789e-14 	0 	0 	
0.265 3.0155e-14 	0 	0 	
0.275 -2.5129e-14 	0 	0 	
0.285 -1.17269e-14 	0 	0 	
0.295 1.3151e-12 	0 	0 	
0.305 8.67574e-10 	0 	0 	
0.315 1.75169e-07 	0 	0 	
0.325 1.34792e-05 	0 	0 	
0.335 0.000491387 	0 	0 	
0.345 0.0100346 	0 	0 	
0.355 0.113016 	0 	0 	
0.365 0.751693 	0 	0 	
0.375 3.18521 	0 	0 	
0.385 9.14258 	0 	0 	
0.395 19.5825 	0 	0 	
0.405 34.1927 	0 	0 	
0.415 51.8981 	0 	0 	
0.425 71.4631 	0 	0 	
0.435 91.5465 	0 	0 	
0.445 110.114 	0 	0 	
0.455 123.697 	0 	0 	
0.465 129.39 	8.74556e-31 	0 	
0.475 130.186 	0 	0 	
0.485 130.182 	0 	0 	
0.495 130.159 	0 	0 	
0.505 130.142 	0 	0 	
0.515 130.128 	0 	0 	
0.525 130.117 	0 	0 	
0.535 130.106 	0 	0 	
0.545 130.097 	0 	0 	
0.555 130.087 	0 	0 	
0.565 130.078 	0 	0 	
0.575 130.068 	0 	0 	
0.585 130.055 	0 	0 	
0.595 130.023 	0 	0 	
0.605 129.85 	0 	0 	
0.615 129.891 	0 	0 	
0.625 119.11 	0 	0 	
0.635 77.7529 	0 	0 	
0.645 11.4759 	0 	0 	
0.655 0.492152 	0 	0 	
0.665 0.012912 	0 	0 	
0.675 0.000229234 	0 	0 	
0.685 2.1362e-06 	0 	0 	
0.695 8.10372e-09 	0 	0 	
0.705 1.07628e-11 	0 	0 	
0.715 8.04133e-14 	0 	0 	
0.725 2.51292e-14 	0 	0 	
0.735 1.25646e-13 	0 	0 	
0.745 4.90019e-14 	0 	0 	
0.755 7.53875e-14 	0 	0 	
0.765 -4.52322e-14 	0 	0 	
0.775 6.2823e-14 	0 	0 	
0.785 1.00517e-14 	0 	0 	
0.795 9.92602e-14 	0 	0 	
0.805 -1.75907e-14 	0 	0 	
0.815 1.63341e-14 	0 	0 	
0.825 1.88468e-14 	0 	0 	
0.835 1.25645e-15 	0 	0 	
0.845 2.38727e-14 	0 	0 	
0.855 1.63339e-14 	0 	0 	
0.865 4.6489e-14 	0 	0 	
0.875 3.76938e-14 	0 	0 	
0.885 5.4028e-14 	0 	0 	
0.895 1.10568e-13 	0 	0 	
0.905 9.2978e-14 	0 	0 	
0.915 7.03619e-14 	0 	0 	
0.925 -1.10179e-25 	0 	0 	
0.935 -2.38728e-14 	0 	0 	
0.945 -1.75905e-14 	0 	0 	
0.955 -4.02067e-14 	0 	0 	
0.965 1.45749e-13 	0 	0 	
0.975 2.51292e-14 	0 	0 	
0.985 3.76952e-15 	0 	0 	
0.995 -5.02585e-14 	0 	0 	
