0.005 6.466e-14 	0 	0 	
0.015 1.6165e-13 	0 	0 	
0.025 3.233e-14 	0 	0 	
0.035 4.84949e-14 	0 	0 	
0.045 -6.466e-14 	0 	0 	
0.055 1.6165e-14 	0 	0 	
0.065 -4.04125e-14 	0 	0 	
0.075 8.0825e-14 	0 	0 	
0.085 6.46599e-14 	0 	0 	
0.095 1.2932e-13 	0 	0 	
0.105 1.2932e-13 	0 	0 	
0.115 1.05072e-13 	0 	0 	
0.125 -1.6165e-14 	0 	0 	
0.135 -8.89076e-14 	0 	0 	
0.145 -2.42471e-14 	0 	0 	
0.155 4.04125e-14 	0 	0 	
0.165 -3.23299e-14 	0 	0 	
0.175 8.89071e-14 	0 	0 	
0.185 8.0825e-14 	0 	0 	
0.195 -4.84949e-14 	0 	0 	
0.205 -5.65775e-14 	0 	0 	
0.215 -4.8495e-14 	0 	0 	
0.225 -6.46595e-14 	0 	0 	
0.235 -1.2932e-13 	0 	0 	
0.245 -4.8495e-14 	0 	0 	
0.255 8.61594e-12 	0 	0 	
0.265 1.2465e-09 	0 	0 	
0.275 9.75543e-08 	0 	0 	
0.285 4.2563e-06 	0 	0 	
0.295 0.000114175 	0 	0 	
0.305 0.00191808 	0 	0 	
0.315 0.0211279 	9.87137e-30 	0 	
0.325 0.154869 	0 	0 	
0.335 0.776552 	-8.99554e-30 	0 	
0.345 2.74418 	0 	0 	
0.355 7.1834 	-4.474e-30 	0 	
0.365 14.8117 	1.49969e-29 	0 	
0.375 25.5767 	0 	0 	
0.385 38.8962 	4.2867e-30 	0 	
0.395 54.0353 	0 	0 	
0.405 70.2849 	2.78102e-30 	0 	
0.415 86.9177 	0 	0 	
0.425 102.962 	-1.08066e-30 	0 	
0.435 116.786 	0 	0 	
0.445 126.008 	-2.9992e-30 	0 	
0.455 129.615 	-2.86959e-30 	0 	
0.465 130.179 	-3.38167e-30 	0 	
0.475 130.182 	0 	0 	
0.485 130.162 	0 	0 	
0.495 130.146 	-1.43793e-30 	0 	
0.505 130.134 	-1.18449e-30 	0 	
0.515 130.124 	0 	0 	
0.525 130.115 	0 	0 	
0.535 130.108 	0 	0 	
0.545 130.101 	0 	0 	
0.555 130.094 	0 	0 	
0.565 130.089 	0 	0 	
0.575 130.082 	0 	0 	
0.585 130.076 	0 	0 	
0.595 130.069 	0 	0 	
0.605 130.061 	0 	0 	
0.615 130.052 	0 	0 	
0.625 130.027 	0 	0 	
0.635 129.869 	0 	0 	
0.645 128.811 	0 	0 	
0.655 122.606 	0 	0 	
0.665 94.1458 	0 	0 	
0.675 29.555 	0 	0 	
0.685 2.26262 	0 	0 	
0.695 0.100902 	0 	0 	
0.705 0.00350093 	0 	0 	
0.715 8.66738e-05 	0 	0 	
0.725 1.45883e-06 	0 	0 	
0.735 1.45329e-08 	0 	0 	
0.745 8.23989e-11 	0 	0 	
0.755 2.54599e-13 	0 	0 	
0.765 5.45568e-14 	0 	0 	
0.775 1.81855e-14 	0 	0 	
0.785 -1.81855e-14 	0 	0 	
0.795 7.88044e-14 	0 	0 	
0.805 4.24331e-14 	0 	0 	
0.815 3.0309e-14 	0 	0 	
0.825 -1.21237e-14 	0 	0 	
0.835 6.06188e-14 	0 	0 	
0.845 9.0928e-14 	0 	0 	
0.855 1.21237e-14 	0 	0 	
0.865 6.66806e-14 	0 	0 	
0.875 -1.21237e-14 	0 	0 	
0.885 6.06186e-14 	0 	0 	
0.895 -2.42476e-14 	0 	0 	
0.905 -1.21237e-14 	0 	0 	
0.915 -2.42474e-14 	0 	0 	
0.925 6.0619e-15 	0 	0 	
0.935 -5.45569e-14 	0 	0 	
0.945 -1.81855e-14 	0 	0 	
0.955 7.27423e-14 	0 	0 	
0.965 2.42475e-14 	0 	0 	
0.975 3.65158e-19 	0 	0 	
0.985 -7.27425e-14 	0 	0 	
0.995 -9.09281e-14 	0 	0 	
