0.005 1.84104e-13 	0 	0 	
0.015 2.38654e-14 	0 	0 	
0.025 -3.40934e-14 	0 	0 	
0.035 -1.12508e-13 	0 	0 	
0.045 -1.73877e-13 	0 	0 	
0.055 -6.81865e-14 	0 	0 	
0.065 -1.12508e-13 	0 	0 	
0.075 -6.81865e-14 	0 	0 	
0.085 -1.36375e-14 	0 	0 	
0.095 -1.0228e-14 	0 	0 	
0.105 -5.45496e-14 	0 	0 	
0.115 1.5342e-13 	0 	0 	
0.125 5.11401e-14 	0 	0 	
0.135 -8.18241e-14 	0 	0 	
0.145 7.50053e-14 	0 	0 	
0.155 -1.36374e-14 	0 	0 	
0.165 4.77309e-14 	0 	0 	
0.175 -4.91872e-24 	0 	0 	
0.185 2.04559e-14 	-8.27998e-30 	0 	
0.195 3.06841e-14 	0 	0 	
0.205 1.05689e-13 	0 	0 	
0.215 3.40936e-14 	0 	0 	
0.225 8.52334e-14 	0 	0 	
0.235 1.15918e-13 	0 	0 	
0.245 1.77286e-13 	0 	0 	
0.255 1.36374e-14 	-8.75311e-30 	0 	
0.265 3.40936e-14 	-4.25827e-30 	0 	
0.275 -6.81868e-14 	0 	0 	
0.285 1.2999e-19 	0 	0 	
0.295 5.8772e-26 	0 	0 	
0.305 3.37525e-13 	0 	0 	
0.315 4.82094e-10 	0 	0 	
0.325 1.51341e-07 	0 	0 	
0.335 1.53874e-05 	0 	0 	
0.345 0.000662714 	0 	0 	
0.355 0.0143765 	-3.90354e-30 	0 	
0.365 0.168088 	0 	0 	
0.375 1.10708 	0 	0 	
0.385 4.45321 	0 	0 	
0.395 12.1014 	0 	0 	
0.405 24.7448 	0 	0 	
0.415 41.6282 	0 	0 	
0.425 61.3895 	0 	0 	
0.435 82.5499 	0 	0 	
0.445 103.192 	0 	0 	
0.455 119.948 	0 	0 	
0.465 128.499 	0 	0 	
0.475 130.149 	0 	0 	
0.485 130.188 	0 	0 	
0.495 130.163 	7.13887e-31 	0 	
0.505 130.144 	0 	0 	
0.515 130.128 	0 	0 	
0.525 130.114 	0 	0 	
0.535 130.101 	0 	0 	
0.545 130.086 	0 	0 	
0.555 130.066 	0 	0 	
0.565 130.039 	0 	0 	
0.575 129.993 	0 	0 	
0.585 129.924 	0 	0 	
0.595 129.903 	0 	0 	
0.605 137.599 	0 	0 	
0.615 -118.996 	0 	0 	
0.625 162.602 	0 	0 	
0.635 17.6896 	0 	0 	
0.645 0.688934 	0 	0 	
0.655 0.0168048 	0 	0 	
0.665 0.000247745 	0 	0 	
0.675 1.73087e-06 	0 	0 	
0.685 4.1993e-09 	0 	0 	
0.695 1.8615e-12 	0 	0 	
0.705 4.6026e-14 	0 	0 	
0.715 5.114e-14 	0 	0 	
0.725 1.2785e-13 	0 	0 	
0.735 -3.06836e-14 	0 	0 	
0.745 -9.4609e-14 	0 	0 	
0.755 1.61091e-13 	0 	0 	
0.765 4.60258e-14 	0 	0 	
0.775 -2.55701e-14 	0 	0 	
0.785 5.11401e-14 	0 	0 	
0.795 9.20524e-14 	0 	0 	
0.805 -2.0456e-14 	0 	0 	
0.815 -1.0228e-14 	0 	0 	
0.825 -3.8355e-14 	0 	0 	
0.835 1.43192e-13 	0 	0 	
0.845 2.55705e-15 	0 	0 	
0.855 -3.0684e-14 	0 	0 	
0.865 7.671e-14 	0 	0 	
0.875 -1.2785e-13 	0 	0 	
0.885 -3.57981e-14 	0 	0 	
0.895 -7.41535e-14 	0 	0 	
0.905 -6.3925e-14 	0 	0 	
0.915 5.11397e-15 	0 	0 	
0.925 3.8355e-14 	0 	0 	
0.935 4.34692e-14 	0 	0 	
0.945 2.557e-14 	0 	0 	
0.955 -1.0228e-14 	0 	0 	
0.965 -7.41533e-14 	0 	0 	
0.975 5.114e-14 	0 	0 	
0.985 5.8811e-14 	0 	0 	
0.995 6.9039e-14 	0 	0 	
