0.005 1.09099e-13 	0 	0 	
0.015 6.13679e-14 	0 	0 	
0.025 5.11403e-14 	0 	0 	
0.035 3.40957e-15 	0 	0 	
0.045 3.75023e-14 	0 	0 	
0.055 -6.81868e-15 	0 	0 	
0.065 -3.06841e-14 	0 	0 	
0.075 -6.81868e-14 	0 	0 	
0.085 3.7503e-14 	0 	0 	
0.095 -2.72743e-14 	0 	0 	
0.105 6.81865e-15 	0 	0 	
0.115 3.409e-15 	0 	0 	
0.125 9.99945e-20 	0 	0 	
0.135 5.79588e-14 	0 	0 	
0.145 8.52334e-14 	0 	0 	
0.155 8.52338e-14 	0 	0 	
0.165 3.0684e-14 	0 	0 	
0.175 6.8187e-14 	0 	0 	
0.185 3.1025e-13 	-9.6994e-30 	0 	
0.195 7.50057e-14 	0 	0 	
0.205 1.84104e-13 	0 	0 	
0.215 2.52291e-13 	0 	0 	
0.225 1.36374e-13 	0 	0 	
0.235 -1.02281e-14 	0 	0 	
0.245 2.72747e-14 	0 	0 	
0.255 3.30706e-13 	-1.01725e-29 	0 	
0.265 2.72748e-14 	-4.96798e-30 	0 	
0.275 6.47774e-13 	0 	0 	
0.285 2.90169e-10 	0 	0 	
0.295 4.74799e-08 	0 	0 	
0.305 3.60327e-06 	0 	0 	
0.315 0.000142909 	0 	0 	
0.325 0.00307903 	0 	0 	
0.335 0.0385962 	0 	0 	
0.345 0.29603 	0 	0 	
0.355 1.46066 	-4.63146e-30 	0 	
0.365 4.86993 	0 	0 	
0.375 11.7975 	0 	0 	
0.385 22.5855 	0 	0 	
0.395 36.6645 	-1.32748e-30 	0 	
0.405 53.1102 	0 	0 	
0.415 70.9727 	0 	0 	
0.425 89.2629 	0 	0 	
0.435 106.596 	0 	0 	
0.445 120.562 	0 	0 	
0.455 128.183 	0 	0 	
0.465 130.074 	0 	0 	
0.475 130.191 	0 	0 	
0.485 130.168 	0 	0 	
0.495 130.149 	7.13642e-31 	0 	
0.505 130.135 	0 	0 	
0.515 130.122 	0 	0 	
0.525 130.11 	0 	0 	
0.535 130.096 	0 	0 	
0.545 130.077 	0 	0 	
0.555 130.045 	0 	0 	
0.565 129.999 	0 	0 	
0.575 -1831.59 	0 	0 	
0.585 -1.43323e+06 	0 	0 	
0.595 -7.83794e+11 	0 	0 	
0.605 -1.24501e+18 	0 	0 	
0.615 1.65941e+18 	0 	0 	
0.625 -1.51406e+18 	0 	0 	
0.635 9.43974e+17 	0 	0 	
0.645 3.06962e+09 	0 	0 	
0.655 1.40928e+06 	0 	0 	
0.665 3272.91 	0 	0 	
0.675 0.162812 	0 	0 	
0.685 0.0040996 	0 	0 	
0.695 6.62956e-05 	0 	0 	
0.705 6.29681e-07 	0 	0 	
0.715 2.98124e-09 	0 	0 	
0.725 5.13957e-12 	0 	0 	
0.735 9.7166e-14 	0 	0 	
0.745 -1.20179e-13 	0 	0 	
0.755 1.78994e-14 	0 	0 	
0.765 8.81483e-25 	0 	0 	
0.775 -2.49996e-19 	0 	0 	
0.785 7.67115e-15 	0 	0 	
0.795 1.0228e-14 	0 	0 	
0.805 4.6026e-14 	0 	0 	
0.815 2.81269e-14 	0 	0 	
0.825 8.9495e-14 	0 	0 	
0.835 7.67101e-14 	0 	0 	
0.845 2.3013e-14 	0 	0 	
0.855 2.09674e-13 	0 	0 	
0.865 -1.27847e-14 	0 	0 	
0.875 3.83553e-14 	0 	0 	
0.885 -7.67103e-14 	0 	0 	
0.895 -5.6254e-14 	0 	0 	
0.905 4.6026e-14 	0 	0 	
0.915 1.7899e-14 	0 	0 	
0.925 -5.11398e-14 	0 	0 	
0.935 -4.8583e-14 	0 	0 	
0.945 -5.00002e-20 	0 	0 	
0.955 1.17622e-13 	0 	0 	
0.965 6.64821e-14 	0 	0 	
0.975 1.27848e-14 	0 	0 	
0.985 -9.7166e-14 	0 	0 	
0.995 7.671e-15 	0 	0 	
