0.005 -4.84946e-14 	0 	0 	
0.015 6.466e-14 	0 	0 	
0.025 -4.04125e-14 	0 	0 	
0.035 -8.08251e-14 	0 	0 	
0.045 -6.466e-14 	0 	0 	
0.055 -9.699e-14 	0 	0 	
0.065 -3.23295e-14 	0 	0 	
0.075 2.42475e-14 	0 	0 	
0.085 4.8495e-14 	0 	0 	
0.095 -8.0825e-15 	0 	0 	
0.105 1.2322e-19 	0 	0 	
0.115 -4.04124e-14 	0 	0 	
0.125 5.65775e-14 	0 	0 	
0.135 1.6165e-14 	0 	0 	
0.145 8.08249e-14 	0 	0 	
0.155 -1.6165e-14 	0 	0 	
0.165 4.04125e-14 	0 	0 	
0.175 4.84951e-14 	0 	0 	
0.185 -1.6165e-14 	0 	0 	
0.195 -1.6165e-14 	0 	0 	
0.205 1.58933e-19 	0 	0 	
0.215 1.53567e-13 	0 	0 	
0.225 -5.65775e-14 	0 	0 	
0.235 6.466e-14 	0 	0 	
0.245 -1.45485e-13 	0 	0 	
0.255 -1.69732e-13 	0 	0 	
0.265 -4.84949e-14 	0 	0 	
0.275 -4.04125e-14 	0 	0 	
0.285 1.7808e-21 	0 	0 	
0.295 -7.27425e-14 	0 	0 	
0.305 -1.53567e-13 	0 	0 	
0.315 1.6165e-14 	3.36502e-30 	0 	
0.325 -1.61651e-14 	0 	0 	
0.335 -4.04125e-14 	-3.36502e-30 	0 	
0.345 -8.89075e-14 	0 	0 	
0.355 3.233e-14 	-1.68251e-30 	0 	
0.365 -3.233e-14 	6.73004e-30 	0 	
0.375 -8.08249e-15 	0 	0 	
0.385 6.46599e-14 	0 	0 	
0.395 2.88535e-08 	0 	0 	
0.405 5.06221e-05 	0 	0 	
0.415 0.0075086 	0 	0 	
0.425 0.246331 	0 	0 	
0.435 2.71002 	0 	0 	
0.445 12.9522 	0 	0 	
0.455 35.2799 	0 	0 	
0.465 67.8476 	-2.47857e-30 	0 	
0.475 103.435 	0 	0 	
0.485 126.62 	0 	0 	
0.495 130.205 	-5.08584e-31 	0 	
0.505 130.179 	-5.09567e-31 	0 	
0.515 130.141 	0 	0 	
0.525 130.106 	0 	0 	
0.535 130.021 	0 	0 	
0.545 128.875 	0 	0 	
0.555 117.235 	0 	0 	
0.565 61.8782 	0 	0 	
0.575 5.2946 	0 	0 	
0.585 0.0913792 	0 	0 	
0.595 0.00039886 	0 	0 	
0.605 1.62702e-07 	0 	0 	
0.615 6.06183e-14 	0 	0 	
0.625 3.03095e-14 	0 	0 	
0.635 3.03092e-14 	0 	0 	
0.645 -2.42474e-14 	0 	0 	
0.655 7.27425e-14 	0 	0 	
0.665 -8.48663e-14 	0 	0 	
0.675 -2.42476e-14 	0 	0 	
0.685 -1.81856e-14 	0 	0 	
0.695 4.2433e-14 	0 	0 	
0.705 3.03094e-14 	0 	0 	
0.715 -1.21237e-14 	0 	0 	
0.725 5.45569e-14 	0 	0 	
0.735 5.4557e-14 	0 	0 	
0.745 3.63712e-14 	0 	0 	
0.755 -6.06197e-15 	0 	0 	
0.765 -6.66806e-14 	0 	0 	
0.775 3.03093e-14 	0 	0 	
0.785 2.42475e-14 	0 	0 	
0.795 1.81856e-14 	0 	0 	
0.805 -3.03094e-14 	0 	0 	
0.815 4.84951e-14 	0 	0 	
0.825 4.24333e-14 	0 	0 	
0.835 2.42475e-14 	0 	0 	
0.845 4.73266e-20 	0 	0 	
0.855 7.27425e-14 	0 	0 	
0.865 6.66805e-14 	0 	0 	
0.875 6.06186e-15 	0 	0 	
0.885 4.24332e-14 	0 	0 	
0.895 7.27425e-14 	0 	0 	
0.905 2.42475e-14 	0 	0 	
0.915 -1.15176e-13 	0 	0 	
0.925 7.88043e-14 	0 	0 	
0.935 -7.27426e-14 	0 	0 	
0.945 -6.06181e-15 	0 	0 	
0.955 6.06187e-15 	0 	0 	
0.965 -6.06186e-14 	0 	0 	
0.975 1.81853e-14 	0 	0 	
0.985 -6.06188e-15 	0 	0 	
0.995 1.21238e-14 	0 	0 	
