0.005 2.9391e-14 	0 	0 	
0.015 8.81726e-14 	0 	0 	
0.025 -1.46954e-13 	0 	0 	
0.035 2.93908e-14 	0 	0 	
0.045 -1.46955e-14 	0 	0 	
0.055 -4.40861e-14 	0 	0 	
0.065 1.46952e-14 	0 	0 	
0.075 -9.99982e-20 	0 	0 	
0.085 2.93908e-14 	0 	0 	
0.095 -2.9391e-14 	0 	0 	
0.105 -7.34771e-14 	0 	0 	
0.115 2.93908e-14 	0 	0 	
0.125 5.87819e-14 	0 	0 	
0.135 5.87817e-14 	0 	0 	
0.145 7.3477e-14 	0 	0 	
0.155 1.32259e-13 	0 	0 	
0.165 1.46954e-13 	0 	0 	
0.175 1.02868e-13 	0 	0 	
0.185 1.17563e-13 	0 	0 	
0.195 -2.93909e-14 	0 	0 	
0.205 -7.34771e-14 	0 	0 	
0.215 2.93907e-14 	0 	0 	
0.225 -1.46958e-14 	0 	0 	
0.235 -2.93907e-14 	0 	0 	
0.245 2.93909e-14 	0 	0 	
0.255 -3.91565e-29 	0 	0 	
0.265 -1.76345e-13 	0 	0 	
0.275 -1.02868e-13 	0 	0 	
0.285 -8.81725e-14 	0 	0 	
0.295 -7.34775e-14 	0 	0 	
0.305 1.02868e-13 	0 	0 	
0.315 -1.46954e-14 	0 	0 	
0.325 1.17563e-13 	0 	0 	
0.335 1.17563e-13 	0 	0 	
0.345 7.34771e-14 	0 	0 	
0.355 1.46957e-14 	0 	0 	
0.365 -3.37064e-30 	0 	0 	
0.375 7.3477e-14 	0 	0 	
0.385 -5.87817e-14 	0 	0 	
0.395 2.93909e-14 	0 	0 	
0.405 2.01796e-09 	0 	0 	
0.415 1.60816e-05 	0 	0 	
0.425 0.00399545 	0 	0 	
0.435 0.182398 	0 	0 	
0.445 2.48279 	0 	0 	
0.455 13.5453 	0 	0 	
0.465 39.6349 	0 	0 	
0.475 78.4915 	0 	0 	
0.485 116.53 	0 	0 	
0.495 129.919 	0 	0 	
0.505 130.193 	0 	0 	
0.515 130.14 	0 	0 	
0.525 129.997 	0 	0 	
0.535 127.811 	0 	0 	
0.545 108.367 	0 	0 	
0.555 41.2844 	0 	0 	
0.565 2.43721 	0 	0 	
0.575 0.0338214 	0 	0 	
0.585 9.67724e-05 	0 	0 	
0.595 8.83336e-09 	0 	0 	
0.605 7.7151e-14 	0 	0 	
0.615 -1.10216e-14 	0 	0 	
0.625 1.10216e-13 	0 	0 	
0.635 9.91942e-14 	0 	0 	
0.645 -9.91941e-14 	0 	0 	
0.655 1.10217e-14 	0 	0 	
0.665 -2.2043e-14 	0 	0 	
0.675 2.20432e-14 	0 	0 	
0.685 2.20432e-14 	0 	0 	
0.695 4.40863e-14 	0 	0 	
0.705 3.30647e-14 	0 	0 	
0.715 -3.30647e-14 	0 	0 	
0.725 1.10216e-14 	0 	0 	
0.735 -8.81727e-14 	0 	0 	
0.745 -4.40864e-14 	0 	0 	
0.755 3.30649e-14 	0 	0 	
0.765 7.71513e-14 	0 	0 	
0.775 -1.10216e-13 	0 	0 	
0.785 -2.20431e-14 	0 	0 	
0.795 -1.10216e-13 	0 	0 	
0.805 -7.7151e-14 	0 	0 	
0.815 -4.40863e-14 	0 	0 	
0.825 -1.10216e-14 	0 	0 	
0.835 2.2043e-14 	0 	0 	
0.845 1.10216e-13 	0 	0 	
0.855 1.10216e-13 	0 	0 	
0.865 1.10216e-13 	0 	0 	
0.875 1.10217e-14 	0 	0 	
0.885 -3.30646e-14 	0 	0 	
0.895 1.10216e-14 	0 	0 	
0.905 -5.51078e-14 	0 	0 	
0.915 -6.61293e-14 	0 	0 	
0.925 -3.30647e-14 	0 	0 	
0.935 5.51079e-14 	0 	0 	
0.945 1.10216e-14 	0 	0 	
0.955 8.81725e-14 	0 	0 	
0.965 -1.10212e-14 	0 	0 	
0.975 1.4328e-13 	0 	0 	
0.985 -2.20431e-14 	0 	0 	
0.995 1.10216e-14 	0 	0 	
