0.005 -1.05577e-13 	0 	0 	
0.015 8.74219e-15 	0 	0 	
0.025 6.72464e-15 	0 	0 	
0.035 1.32475e-13 	0 	0 	
0.045 3.36231e-14 	0 	0 	
0.055 -1.4189e-13 	0 	0 	
0.065 -1.47943e-14 	0 	0 	
0.075 -6.05219e-14 	0 	0 	
0.085 1.61394e-14 	0 	0 	
0.095 3.16056e-14 	0 	0 	
0.105 -9.68349e-14 	0 	0 	
0.115 -1.47942e-14 	6.29929e-30 	0 	
0.125 1.68117e-14 	0 	0 	
0.135 2.21913e-14 	0 	0 	
0.145 -4.03479e-15 	0 	0 	
0.155 3.36233e-14 	0 	0 	
0.165 1.74841e-14 	0 	0 	
0.175 -8.74202e-14 	0 	0 	
0.185 -1.0087e-13 	0 	0 	
0.195 -2.28637e-14 	0 	0 	
0.205 -8.20405e-14 	0 	0 	
0.215 3.22782e-14 	0 	0 	
0.225 3.3623e-14 	0 	0 	
0.235 -7.2626e-14 	0 	0 	
0.245 3.3623e-14 	0 	0 	
0.255 7.73332e-14 	0 	0 	
0.265 -6.38843e-14 	0 	0 	
0.275 3.36232e-14 	0 	0 	
0.285 3.69853e-14 	0 	0 	
0.295 -1.23061e-13 	0 	0 	
0.305 2.35361e-14 	0 	0 	
0.315 -5.85045e-14 	0 	0 	
0.325 -3.36232e-15 	0 	0 	
0.335 7.53158e-14 	0 	0 	
0.345 3.29506e-14 	0 	0 	
0.355 1.52918e-12 	0 	0 	
0.365 2.30199e-08 	0 	0 	
0.375 1.22853e-05 	0 	0 	
0.385 0.00122538 	0 	0 	
0.395 0.0400883 	0 	0 	
0.405 0.554375 	0 	0 	
0.415 3.54977 	0 	0 	
0.425 12.5922 	0 	0 	
0.435 29.6738 	0 	0 	
0.445 53.549 	0 	0 	
0.455 81.2453 	0 	0 	
0.465 108.187 	0 	0 	
0.475 125.883 	0 	0 	
0.485 130.094 	0 	0 	
0.495 130.194 	0 	0 	
0.505 130.162 	0 	0 	
0.515 130.137 	0 	0 	
0.525 130.116 	0 	0 	
0.535 130.097 	0 	0 	
0.545 130.077 	0 	0 	
0.555 130.031 	0 	0 	
0.565 129.563 	0 	0 	
0.575 126.905 	0 	0 	
0.585 99.274 	0 	0 	
0.595 26.7359 	0 	0 	
0.605 1.09928 	0 	0 	
0.615 0.0188511 	0 	0 	
0.625 0.000124489 	0 	0 	
0.635 1.68113e-07 	0 	0 	
0.645 8.24104e-12 	0 	0 	
0.655 5.85044e-14 	0 	0 	
0.665 -2.87478e-14 	0 	0 	
0.675 5.29568e-14 	0 	0 	
0.685 -2.06781e-14 	0 	0 	
0.695 5.44695e-14 	0 	0 	
0.705 -8.01909e-14 	0 	0 	
0.715 -2.37041e-14 	0 	0 	
0.725 -3.0261e-14 	0 	0 	
0.735 2.67306e-14 	0 	0 	
0.745 5.74958e-14 	0 	0 	
0.755 -4.69042e-14 	0 	0 	
0.765 -6.35478e-14 	0 	0 	
0.775 -1.26084e-14 	0 	0 	
0.785 -1.26087e-13 	0 	0 	
0.795 -6.45565e-14 	0 	0 	
0.805 -7.16173e-14 	0 	0 	
0.815 -6.20346e-14 	0 	0 	
0.825 2.52174e-14 	0 	0 	
0.835 -2.16868e-14 	0 	0 	
0.845 1.81563e-14 	0 	0 	
0.855 3.02607e-15 	0 	0 	
0.865 1.37182e-13 	0 	0 	
0.875 6.30434e-14 	0 	0 	
0.885 1.20539e-13 	0 	0 	
0.895 9.78436e-14 	0 	0 	
0.905 8.57383e-15 	0 	0 	
0.915 1.21043e-14 	0 	0 	
0.925 -4.28693e-14 	0 	0 	
0.935 -4.84173e-14 	0 	0 	
0.945 -9.88519e-14 	0 	0 	
0.955 -1.06417e-13 	0 	0 	
0.965 9.98603e-14 	0 	0 	
0.975 -5.29565e-14 	0 	0 	
0.985 -6.75827e-14 	0 	0 	
0.995 3.5304e-15 	0 	0 	
