0.005 -1.18298e-13 	0 	0 	
0.015 6.7599e-14 	0 	0 	
0.025 2.95746e-14 	0 	0 	
0.035 -5.91491e-14 	0 	0 	
0.045 2.11247e-13 	0 	0 	
0.055 7.18239e-14 	0 	0 	
0.065 2.53496e-14 	-3.75249e-30 	0 	
0.075 1.56323e-13 	0 	0 	
0.085 3.80244e-14 	0 	0 	
0.095 -3.80244e-14 	0 	0 	
0.105 6.33741e-14 	0 	0 	
0.115 8.44988e-14 	0 	0 	
0.125 7.60489e-14 	0 	0 	
0.135 -6.33741e-14 	0 	0 	
0.145 8.44988e-15 	0 	0 	
0.155 -1.18298e-13 	0 	0 	
0.165 -2.53496e-14 	0 	0 	
0.175 9.71736e-14 	0 	0 	
0.185 1.05623e-13 	0 	0 	
0.195 -4.22494e-14 	0 	0 	
0.205 6.7599e-14 	0 	0 	
0.215 1.90122e-13 	0 	0 	
0.225 6.61091e-25 	0 	0 	
0.235 2.11247e-14 	0 	0 	
0.245 1.90122e-13 	0 	0 	
0.255 -1.73222e-13 	0 	0 	
0.265 -6.33741e-14 	0 	0 	
0.275 4.22494e-14 	0 	0 	
0.285 1.68998e-14 	0 	0 	
0.295 -6.7599e-14 	0 	0 	
0.305 1.26748e-14 	0 	0 	
0.315 1.35198e-13 	0 	0 	
0.325 1.26748e-14 	0 	0 	
0.335 -4.22494e-14 	0 	0 	
0.345 1.68997e-14 	0 	0 	
0.355 -8.87237e-14 	0 	0 	
0.365 2.53496e-14 	0 	0 	
0.375 -1.26748e-14 	0 	0 	
0.385 -1.26748e-14 	0 	0 	
0.395 2.09433e-07 	0 	0 	
0.405 0.000196981 	0 	0 	
0.415 0.0202724 	0 	0 	
0.425 0.492614 	0 	0 	
0.435 4.19831 	0 	0 	
0.445 16.816 	4.9178e-31 	0 	
0.455 40.9542 	0 	0 	
0.465 73.5446 	0 	0 	
0.475 107.276 	0 	0 	
0.485 127.51 	8.75906e-31 	0 	
0.495 130.206 	0 	0 	
0.505 130.177 	0 	0 	
0.515 130.141 	9.31623e-32 	0 	
0.525 130.111 	0 	0 	
0.535 130.074 	0 	0 	
0.545 129.756 	0 	0 	
0.555 126.245 	-2.95778e-30 	0 	
0.565 99.0353 	0 	0 	
0.575 23.5285 	0 	0 	
0.585 0.687554 	0 	0 	
0.595 0.00509648 	0 	0 	
0.605 6.15148e-06 	0 	0 	
0.615 6.3376e-15 	0 	0 	
0.625 3.80246e-14 	0 	0 	
0.635 -6.02051e-14 	0 	0 	
0.645 -7.28801e-14 	0 	0 	
0.655 4.11931e-14 	0 	0 	
0.665 9.18924e-14 	0 	0 	
0.675 -2.85181e-14 	0 	0 	
0.685 1.90121e-14 	0 	0 	
0.695 6.33739e-14 	0 	0 	
0.705 6.33773e-15 	0 	0 	
0.715 6.33775e-15 	0 	0 	
0.725 2.02797e-13 	3.16618e-30 	0 	
0.735 -2.535e-14 	0 	0 	
0.745 1.90123e-14 	0 	0 	
0.755 4.11933e-14 	0 	0 	
0.765 -8.55551e-14 	-9.14673e-30 	0 	
0.775 1.58435e-14 	0 	0 	
0.785 -6.33738e-14 	0 	0 	
0.795 8.23863e-14 	0 	0 	
0.805 -8.55554e-14 	0 	0 	
0.815 -5.3868e-14 	4.22156e-30 	0 	
0.825 -4.11934e-14 	2.28668e-30 	0 	
0.835 5.06994e-14 	0 	0 	
0.845 -7.60484e-14 	0 	0 	
0.855 -3.16869e-14 	0 	0 	
0.865 -2.21809e-14 	0 	0 	
0.875 -2.21807e-14 	0 	0 	
0.885 3.1687e-15 	0 	0 	
0.895 -1.58434e-14 	0 	0 	
0.905 4.43619e-14 	0 	0 	
0.915 -7.92176e-14 	0 	0 	
0.925 3.1687e-15 	0 	0 	
0.935 3.16869e-14 	0 	0 	
0.945 4.11929e-14 	0 	0 	
0.955 -1.23579e-13 	0 	0 	
0.965 2.21808e-14 	0 	0 	
0.975 1.58437e-14 	0 	0 	
0.985 -9.82298e-14 	0 	0 	
0.995 5.70369e-14 	0 	0 	
