0.005 4.90141e-14 	0 	0 	
0.015 8.22944e-14 	0 	0 	
0.025 9.99288e-14 	0 	0 	
0.035 9.99287e-14 	0 	0 	
0.045 7.64162e-14 	0 	0 	
0.055 4.40863e-14 	0 	0 	
0.065 8.81725e-15 	0 	0 	
0.075 -3.23299e-14 	0 	0 	
0.085 -4.11472e-14 	0 	0 	
0.095 -8.8173e-15 	0 	0 	
0.105 -8.8173e-15 	0 	0 	
0.115 -5.29036e-14 	0 	0 	
0.125 -1.02868e-13 	0 	0 	
0.135 -1.6165e-13 	0 	0 	
0.145 -2.05736e-13 	-1.63152e-30 	0 	
0.155 -1.96919e-13 	1.30522e-30 	0 	
0.165 -1.52833e-13 	0 	0 	
0.175 -1.20503e-13 	0 	0 	
0.185 -8.22945e-14 	0 	0 	
0.195 -5.87815e-15 	0 	0 	
0.205 5.29036e-14 	0 	0 	
0.215 6.17208e-14 	0 	0 	
0.225 8.52334e-14 	1.63152e-31 	0 	
0.235 1.08746e-13 	5.87348e-30 	0 	
0.245 7.64162e-14 	6.52609e-31 	0 	
0.255 4.11472e-14 	0 	0 	
0.265 2.93909e-14 	0 	0 	
0.275 1.76345e-14 	0 	0 	
0.285 3.5269e-14 	0 	0 	
0.295 6.46599e-14 	0 	0 	
0.305 5.29036e-14 	0 	0 	
0.315 3.233e-14 	0 	0 	
0.325 2.05736e-14 	0 	0 	
0.335 -1.17563e-14 	0 	0 	
0.345 -4.70253e-14 	0 	0 	
0.355 -5.58426e-14 	0 	0 	
0.365 -4.99645e-14 	0 	0 	
0.375 -4.70254e-14 	0 	0 	
0.385 -5.29036e-14 	0 	0 	
0.395 -6.46599e-14 	0 	0 	
0.405 0.00595762 	0 	0 	
0.415 2.43666 	0 	0 	
0.425 12.7703 	0 	0 	
0.435 32.8117 	0 	0 	
0.445 58.3819 	0 	0 	
0.455 84.6176 	0 	0 	
0.465 106.935 	0 	0 	
0.475 121.878 	0 	0 	
0.485 129.172 	0 	0 	
0.495 130.697 	0 	0 	
0.505 129.81 	0 	0 	
0.515 129.059 	0 	0 	
0.525 129.051 	0 	0 	
0.535 129.659 	0 	0 	
0.545 130.464 	0 	0 	
0.555 130.903 	0 	0 	
0.565 129.241 	0 	0 	
0.575 117.952 	-2.06291e-30 	0 	
0.585 85.5724 	-5.62697e-31 	0 	
0.595 39.7445 	0 	0 	
0.605 8.41189 	0 	0 	
0.615 0.0562448 	0 	0 	
0.625 -9.47856e-14 	0 	0 	
0.635 -9.47856e-14 	0 	0 	
0.645 -4.40863e-14 	0 	0 	
0.655 -2.20432e-15 	0 	0 	
0.665 -6.61293e-15 	0 	0 	
0.675 -2.20431e-14 	0 	0 	
0.685 -6.61293e-15 	0 	0 	
0.695 1.98388e-14 	0 	0 	
0.705 2.42475e-14 	0 	0 	
0.715 3.96776e-14 	0 	0 	
0.725 8.59681e-14 	0 	0 	
0.735 1.19033e-13 	0 	0 	
0.745 9.25811e-14 	0 	0 	
0.755 3.96777e-14 	0 	0 	
0.765 1.10216e-14 	0 	0 	
0.775 -2.20431e-15 	0 	0 	
0.785 -2.20431e-14 	0 	0 	
0.795 -2.64518e-14 	0 	0 	
0.805 2.2043e-15 	0 	0 	
0.815 2.42475e-14 	-5.13929e-30 	0 	
0.825 1.98389e-14 	0 	0 	
0.835 6.61295e-15 	0 	0 	
0.845 0 	0 	0 	
0.855 -6.61295e-15 	0 	0 	
0.865 -3.08604e-14 	0 	0 	
0.875 -5.73122e-14 	0 	0 	
0.885 -5.51079e-14 	0 	0 	
0.895 -2.86561e-14 	0 	0 	
0.905 -1.10216e-14 	0 	0 	
0.915 -1.76345e-14 	0 	0 	
0.925 -2.64518e-14 	0 	0 	
0.935 -2.42475e-14 	0 	0 	
0.945 -1.32259e-14 	0 	0 	
0.955 1.76345e-14 	0 	0 	
0.965 5.51078e-14 	0 	0 	
0.975 6.61294e-14 	0 	0 	
0.985 6.17208e-14 	0 	0 	
0.995 5.40551e-14 	0 	0 	
