0.005 -5.49242e-14 	0 	0 	
0.015 4.22494e-14 	0 	0 	
0.025 -2.11247e-14 	0 	0 	
0.035 -9.71736e-14 	0 	0 	
0.045 1.01399e-13 	0 	0 	
0.055 4.64743e-14 	0 	0 	
0.065 3.37995e-14 	-5.39422e-30 	0 	
0.075 1.64773e-13 	0 	0 	
0.085 -1.52098e-13 	0 	0 	
0.095 -4.22494e-14 	0 	0 	
0.105 6.33741e-14 	0 	0 	
0.115 2.53496e-14 	0 	0 	
0.125 -8.87237e-14 	0 	0 	
0.135 -1.09848e-13 	0 	0 	
0.145 4.22494e-15 	0 	0 	
0.155 8.87237e-14 	0 	0 	
0.165 7.18239e-14 	0 	0 	
0.175 8.02738e-14 	0 	0 	
0.185 -1.43648e-13 	0 	0 	
0.195 2.45046e-13 	0 	0 	
0.205 8.44988e-15 	0 	0 	
0.215 8.87237e-14 	0 	0 	
0.225 4.22494e-15 	0 	0 	
0.235 2.95746e-14 	0 	0 	
0.245 -5.06992e-14 	0 	0 	
0.255 2.95746e-14 	0 	0 	
0.265 -8.44988e-14 	0 	0 	
0.275 -6.33741e-14 	0 	0 	
0.285 -8.44988e-15 	0 	0 	
0.295 2.95746e-14 	0 	0 	
0.305 -5.06993e-14 	0 	0 	
0.315 -2.53496e-14 	0 	0 	
0.325 1.18298e-13 	0 	0 	
0.335 -3.37995e-14 	0 	0 	
0.345 4.22494e-15 	0 	0 	
0.355 1.79298e-10 	0 	0 	
0.365 3.04267e-07 	0 	0 	
0.375 7.1461e-05 	0 	0 	
0.385 0.00435633 	0 	0 	
0.395 0.0982096 	0 	0 	
0.405 1.00095 	0 	0 	
0.415 5.18701 	0 	0 	
0.425 15.8915 	0 	0 	
0.435 34.0843 	0 	0 	
0.445 58.1318 	1.9535e-30 	0 	
0.455 85.1259 	0 	0 	
0.465 110.574 	0 	0 	
0.475 126.583 	0 	0 	
0.485 130.121 	5.30673e-31 	0 	
0.495 130.193 	0 	0 	
0.505 130.162 	0 	0 	
0.515 130.138 	1.78401e-31 	0 	
0.525 130.118 	0 	0 	
0.535 130.1 	0 	0 	
0.545 130.082 	0 	0 	
0.555 130.058 	-3.40243e-30 	0 	
0.565 129.93 	0 	0 	
0.575 127.542 	0 	0 	
0.585 113.454 	0 	0 	
0.595 62.5496 	0 	0 	
0.605 6.62389 	0 	0 	
0.615 0.175909 	0 	0 	
0.625 0.00208168 	0 	0 	
0.635 7.9257e-06 	0 	0 	
0.645 5.5494e-09 	0 	0 	
0.655 1.86954e-13 	0 	0 	
0.665 -7.28801e-14 	0 	0 	
0.675 3.1687e-14 	0 	0 	
0.685 -2.21809e-14 	0 	0 	
0.695 -3.48558e-14 	0 	0 	
0.705 1.90122e-14 	0 	0 	
0.715 1.90122e-14 	0 	0 	
0.725 1.90121e-14 	4.57336e-30 	0 	
0.735 -6.33772e-15 	0 	0 	
0.745 -1.58434e-14 	0 	0 	
0.755 4.11929e-14 	0 	0 	
0.765 4.4362e-14 	-1.33683e-29 	0 	
0.775 -1.58435e-14 	0 	0 	
0.785 -5.38682e-14 	0 	0 	
0.795 3.1687e-15 	0 	0 	
0.805 1.90122e-14 	0 	0 	
0.815 -3.16863e-15 	6.33233e-30 	0 	
0.825 3.48558e-14 	2.99027e-30 	0 	
0.835 -6.33741e-14 	0 	0 	
0.845 -1.29917e-13 	0 	0 	
0.855 -6.3374e-14 	0 	0 	
0.865 6.33738e-14 	0 	0 	
0.875 6.33744e-15 	0 	0 	
0.885 1.01398e-13 	0 	0 	
0.895 3.48556e-14 	0 	0 	
0.905 3.80241e-14 	0 	0 	
0.915 2.21808e-14 	0 	0 	
0.925 4.75305e-14 	0 	0 	
0.935 -2.85184e-14 	0 	0 	
0.945 1.90121e-14 	0 	0 	
0.955 1.58439e-14 	0 	0 	
0.965 7.60486e-14 	0 	0 	
0.975 2.53497e-14 	0 	0 	
0.985 7.28802e-14 	0 	0 	
0.995 9.50611e-14 	0 	0 	
