0.005 3.37995e-14 	0 	0 	
0.015 2.95746e-14 	0 	0 	
0.025 -9.71736e-14 	0 	0 	
0.035 -2.95746e-14 	0 	0 	
0.045 5.87733e-26 	0 	0 	
0.055 6.7599e-14 	0 	0 	
0.065 -8.87237e-14 	-7.27047e-30 	0 	
0.075 -8.02738e-14 	0 	0 	
0.085 4.22494e-14 	0 	0 	
0.095 -9.29486e-14 	0 	0 	
0.105 -1.01399e-13 	0 	0 	
0.115 -5.06993e-14 	0 	0 	
0.125 4.64743e-14 	0 	0 	
0.135 6.7599e-14 	0 	0 	
0.145 7.18239e-14 	0 	0 	
0.155 -1.26748e-14 	0 	0 	
0.165 1.09848e-13 	0 	0 	
0.175 2.11247e-14 	0 	0 	
0.185 -3.80244e-14 	0 	0 	
0.195 1.01399e-13 	0 	0 	
0.205 1.43648e-13 	0 	0 	
0.215 -1.09848e-13 	0 	0 	
0.225 6.7599e-14 	0 	0 	
0.235 -2.70396e-13 	0 	0 	
0.245 -8.02738e-14 	0 	0 	
0.255 -2.32372e-13 	0 	0 	
0.265 -1.26748e-13 	0 	0 	
0.275 1.01399e-13 	0 	0 	
0.285 -5.91491e-14 	0 	0 	
0.295 -1.01398e-13 	0 	0 	
0.305 3.2532e-13 	0 	0 	
0.315 4.03557e-10 	0 	0 	
0.325 1.18453e-07 	0 	0 	
0.335 1.26597e-05 	0 	0 	
0.345 0.000562709 	0 	0 	
0.355 0.0121741 	0 	0 	
0.365 0.144176 	0 	0 	
0.375 0.981409 	0 	0 	
0.385 4.06078 	0 	0 	
0.395 11.2925 	0 	0 	
0.405 23.5016 	0 	0 	
0.415 40.0365 	0 	0 	
0.425 59.568 	0 	0 	
0.435 80.6401 	0 	0 	
0.445 101.407 	6.41287e-31 	0 	
0.455 118.666 	1.02071e-30 	0 	
0.465 128.068 	0 	0 	
0.475 130.122 	0 	0 	
0.485 130.191 	5.3064e-31 	0 	
0.495 130.166 	0 	0 	
0.505 130.145 	0 	0 	
0.515 130.13 	1.77186e-31 	0 	
0.525 130.117 	0 	0 	
0.535 130.106 	0 	0 	
0.545 130.095 	0 	0 	
0.555 130.084 	-4.81561e-30 	0 	
0.565 130.071 	0 	0 	
0.575 130.056 	0 	0 	
0.585 130.029 	0 	0 	
0.595 129.989 	0 	0 	
0.605 129.644 	0 	0 	
0.615 111.72 	-1.9967e-30 	0 	
0.625 76.1794 	0 	0 	
0.635 21.2976 	0 	0 	
0.645 0.995382 	0 	0 	
0.655 0.0270272 	0 	0 	
0.665 0.000431603 	0 	0 	
0.675 3.3309e-06 	0 	0 	
0.685 1.06956e-08 	0 	0 	
0.695 9.11953e-12 	0 	0 	
0.705 4.11929e-14 	0 	0 	
0.715 2.85182e-14 	0 	0 	
0.725 6.65428e-14 	5.62874e-30 	0 	
0.735 -3.16838e-15 	0 	0 	
0.745 -8.23862e-14 	0 	0 	
0.755 4.1193e-14 	0 	0 	
0.765 2.53496e-14 	-1.61827e-29 	0 	
0.775 -9.5061e-15 	0 	0 	
0.785 9.5061e-14 	0 	0 	
0.795 2.53494e-14 	0 	0 	
0.805 -8.44313e-29 	0 	0 	
0.815 -8.87236e-14 	9.14671e-30 	0 	
0.825 -8.23862e-14 	4.04566e-30 	0 	
0.835 -1.2041e-13 	0 	0 	
0.845 -3.16868e-14 	0 	0 	
0.855 -1.14073e-13 	0 	0 	
0.865 -3.16869e-14 	0 	0 	
0.875 1.58434e-14 	0 	0 	
0.885 1.36254e-13 	0 	0 	
0.895 -8.23861e-14 	0 	0 	
0.905 7.6049e-14 	0 	0 	
0.915 -1.36254e-13 	0 	0 	
0.925 6.65429e-14 	0 	0 	
0.935 6.33739e-14 	0 	0 	
0.945 8.87235e-14 	0 	0 	
0.955 -4.75303e-14 	0 	0 	
0.965 6.33744e-15 	0 	0 	
0.975 2.85181e-14 	0 	0 	
0.985 1.90122e-14 	0 	0 	
0.995 9.5065e-15 	0 	0 	
