0.005 -7.50053e-14 	0 	0 	
0.015 -3.40948e-15 	0 	0 	
0.025 1.53421e-13 	0 	0 	
0.035 -2.72744e-14 	0 	0 	
0.045 -2.72743e-14 	0 	0 	
0.055 -8.18243e-14 	0 	0 	
0.065 1.32964e-13 	0 	0 	
0.075 -4.91935e-24 	0 	0 	
0.085 -1.39783e-13 	0 	0 	
0.095 3.40934e-14 	0 	0 	
0.105 3.40934e-14 	0 	0 	
0.115 -5.45492e-14 	0 	0 	
0.125 5.114e-14 	0 	0 	
0.135 -6.81885e-15 	0 	0 	
0.145 6.13683e-14 	0 	0 	
0.155 -9.88711e-14 	0 	0 	
0.165 -7.1596e-14 	0 	0 	
0.175 5.11402e-14 	0 	0 	
0.185 1.36374e-13 	-7.57026e-30 	0 	
0.195 9.2052e-14 	0 	0 	
0.205 -8.52337e-14 	0 	0 	
0.215 2.0797e-13 	0 	0 	
0.225 1.5342e-13 	0 	0 	
0.235 9.88706e-14 	0 	0 	
0.245 1.80695e-13 	0 	0 	
0.255 1.46602e-13 	-8.04339e-30 	0 	
0.265 7.15961e-14 	-3.90341e-30 	0 	
0.275 -8.52337e-14 	0 	0 	
0.285 1.29555e-13 	0 	0 	
0.295 -6.13683e-14 	0 	0 	
0.305 -2.72747e-14 	0 	0 	
0.315 -7.1596e-14 	0 	0 	
0.325 1.13701e-11 	0 	0 	
0.335 1.36212e-08 	0 	0 	
0.345 3.00705e-06 	0 	0 	
0.355 0.000229397 	-3.54856e-30 	0 	
0.365 0.00749056 	0 	0 	
0.375 0.114758 	0 	0 	
0.385 0.914768 	0 	0 	
0.395 4.17447 	0 	0 	
0.405 12.2507 	0 	0 	
0.415 26.1001 	0 	0 	
0.425 44.8274 	0 	0 	
0.435 66.7518 	0 	0 	
0.445 89.8826 	0 	0 	
0.455 111.214 	0 	0 	
0.465 125.507 	0 	0 	
0.475 129.906 	0 	0 	
0.485 130.199 	0 	0 	
0.495 130.171 	7.1404e-31 	0 	
0.505 130.148 	0 	0 	
0.515 130.13 	0 	0 	
0.525 130.115 	0 	0 	
0.535 130.101 	0 	0 	
0.545 130.086 	0 	0 	
0.555 130.068 	0 	0 	
0.565 130.044 	0 	0 	
0.575 130.001 	0 	0 	
0.585 129.509 	0 	0 	
0.595 123.735 	0 	0 	
0.605 48.1932 	0 	0 	
0.615 53.7339 	0 	0 	
0.625 7.55768 	0 	0 	
0.635 0.241841 	0 	0 	
0.645 0.00418887 	0 	0 	
0.655 3.68207e-05 	0 	0 	
0.665 1.2349e-07 	0 	0 	
0.675 8.0942e-11 	0 	0 	
0.685 5.62544e-14 	0 	0 	
0.695 -3.83549e-14 	0 	0 	
0.705 5.36971e-14 	0 	0 	
0.715 1.0228e-13 	0 	0 	
0.725 1.2785e-13 	0 	0 	
0.735 3.0684e-14 	0 	0 	
0.745 7.15965e-14 	0 	0 	
0.755 8.69384e-14 	0 	0 	
0.765 3.5798e-14 	0 	0 	
0.775 5.114e-14 	0 	0 	
0.785 1.12508e-13 	0 	0 	
0.795 -1.5342e-14 	0 	0 	
0.805 2.3013e-14 	0 	0 	
0.815 -1.02279e-14 	0 	0 	
0.825 5.114e-14 	0 	0 	
0.835 1.30407e-13 	0 	0 	
0.845 -7.67101e-15 	0 	0 	
0.855 -5.88115e-14 	0 	0 	
0.865 2.557e-14 	0 	0 	
0.875 -6.39252e-14 	0 	0 	
0.885 7.67115e-15 	0 	0 	
0.895 -6.1368e-14 	0 	0 	
0.905 -4.0912e-14 	0 	0 	
0.915 -1.25293e-13 	0 	0 	
0.925 3.8355e-14 	0 	0 	
0.935 -6.90391e-14 	0 	0 	
0.945 1.02279e-14 	0 	0 	
0.955 7.67105e-14 	0 	0 	
0.965 9.2052e-14 	0 	0 	
0.975 3.8355e-14 	0 	0 	
0.985 1.30407e-13 	0 	0 	
0.995 9.71661e-14 	0 	0 	
