0.005 2.35127e-14 	0 	0 	
0.015 2.35127e-14 	0 	0 	
0.025 -1.16987e-24 	0 	0 	
0.035 -4.7025e-14 	0 	0 	
0.045 2.35127e-14 	0 	0 	
0.055 -2.35126e-14 	0 	0 	
0.065 2.35126e-14 	0 	0 	
0.075 7.05383e-14 	0 	0 	
0.085 4.70256e-14 	0 	0 	
0.095 9.4051e-14 	0 	0 	
0.105 1.41076e-13 	0 	0 	
0.115 1.17029e-24 	0 	0 	
0.125 2.35126e-14 	0 	0 	
0.135 -7.0538e-14 	0 	0 	
0.145 -9.40508e-14 	0 	0 	
0.155 -2.35126e-14 	0 	0 	
0.165 -4.70256e-14 	0 	0 	
0.175 -4.70254e-14 	0 	0 	
0.185 2.35126e-14 	0 	0 	
0.195 1.16949e-24 	0 	0 	
0.205 -4.6127e-29 	4.24196e-30 	0 	
0.215 -7.05381e-14 	0 	0 	
0.225 -2.35127e-14 	0 	0 	
0.235 4.70254e-14 	0 	0 	
0.245 2.33687e-24 	0 	0 	
0.255 -1.16843e-24 	0 	0 	
0.265 -1.17564e-13 	0 	0 	
0.275 -2.92108e-24 	0 	0 	
0.285 -1.41076e-13 	0 	0 	
0.295 2.35127e-14 	0 	0 	
0.305 -2.3513e-14 	0 	0 	
0.315 7.0538e-14 	0 	0 	
0.325 5.83694e-25 	0 	0 	
0.335 -7.05381e-14 	0 	0 	
0.345 -4.70254e-14 	0 	0 	
0.355 4.70254e-14 	0 	0 	
0.365 1.17563e-13 	0 	0 	
0.375 1.88101e-13 	0 	0 	
0.385 1.08596e-09 	0 	0 	
0.395 6.35044e-07 	0 	0 	
0.405 9.16743e-05 	0 	0 	
0.415 0.00478051 	0 	0 	
0.425 0.107791 	0 	0 	
0.435 1.16078 	0 	0 	
0.445 6.5144 	0 	0 	
0.455 21.5785 	0 	0 	
0.465 48.8917 	0 	0 	
0.475 85.0177 	0 	0 	
0.485 118.042 	0 	0 	
0.495 129.853 	0 	0 	
0.505 130.207 	-7.44118e-31 	0 	
0.515 130.152 	9.58471e-31 	0 	
0.525 130.019 	-1.62259e-30 	0 	
0.535 128.581 	-8.48047e-31 	0 	
0.545 117.489 	-8.69518e-31 	0 	
0.555 74.1802 	0 	0 	
0.565 16.4655 	0 	0 	
0.575 1.13554 	0 	0 	
0.585 0.0371163 	0 	0 	
0.595 0.000567057 	0 	0 	
0.605 3.29076e-06 	0 	0 	
0.615 4.83928e-09 	0 	0 	
0.625 6.17208e-13 	0 	0 	
0.635 -1.76345e-14 	0 	0 	
0.645 5.29035e-14 	0 	0 	
0.655 7.0538e-14 	0 	0 	
0.665 5.29035e-14 	0 	0 	
0.675 7.05381e-14 	0 	0 	
0.685 -3.5269e-14 	0 	0 	
0.695 -3.5269e-14 	0 	0 	
0.705 -1.76345e-14 	0 	0 	
0.715 -3.5269e-14 	0 	0 	
0.725 -5.29035e-14 	0 	0 	
0.735 -1.76345e-14 	0 	0 	
0.745 3.5269e-14 	0 	0 	
0.755 -3.5269e-14 	-1.59073e-30 	0 	
0.765 1.76345e-14 	0 	0 	
0.775 -4.35421e-25 	0 	0 	
0.785 7.05381e-14 	0 	0 	
0.795 1.41076e-13 	-1.59073e-30 	0 	
0.805 -1.76345e-14 	-1.59073e-30 	0 	
0.815 1.76345e-14 	0 	0 	
0.825 5.29035e-14 	0 	0 	
0.835 -3.52691e-14 	0 	0 	
0.845 -1.76345e-14 	0 	0 	
0.855 1.76345e-14 	0 	0 	
0.865 1.76345e-14 	0 	0 	
0.875 1.05807e-13 	0 	0 	
0.885 3.5269e-14 	0 	0 	
0.895 7.0538e-14 	0 	0 	
0.905 -5.29035e-14 	0 	0 	
0.915 7.05381e-14 	0 	0 	
0.925 -1.76344e-14 	0 	0 	
0.935 8.69273e-25 	0 	0 	
0.945 -1.05807e-13 	0 	0 	
0.955 3.52689e-14 	0 	0 	
0.965 -1.76346e-14 	0 	0 	
0.975 5.29035e-14 	0 	0 	
0.985 1.76346e-14 	0 	0 	
0.995 1.23441e-13 	0 	0 	
