0.005 4.90141e-14 	0 	0 	
0.015 8.22944e-14 	0 	0 	
0.025 9.99288e-14 	0 	0 	
0.035 1.11685e-13 	0 	0 	
0.045 1.11685e-13 	0 	0 	
0.055 9.69898e-14 	0 	0 	
0.065 5.58427e-14 	0 	0 	
0.075 -2.64516e-14 	0 	0 	
0.085 -7.6416e-14 	0 	0 	
0.095 -5.87816e-14 	0 	0 	
0.105 -5.87817e-14 	0 	0 	
0.115 -9.11116e-14 	0 	0 	
0.125 -1.2932e-13 	0 	0 	
0.135 -1.91041e-13 	0 	0 	
0.145 -2.41005e-13 	-1.63152e-30 	0 	
0.155 -2.2631e-13 	1.30522e-30 	0 	
0.165 -1.76345e-13 	0 	0 	
0.175 -1.38137e-13 	0 	0 	
0.185 -8.81725e-14 	0 	0 	
0.195 -5.87815e-15 	0 	0 	
0.205 4.99645e-14 	0 	0 	
0.215 5.58427e-14 	0 	0 	
0.225 8.22944e-14 	1.63152e-31 	0 	
0.235 1.11685e-13 	7.17868e-30 	0 	
0.245 8.52335e-14 	6.52609e-31 	0 	
0.255 5.29035e-14 	0 	0 	
0.265 4.40863e-14 	0 	0 	
0.275 3.233e-14 	0 	0 	
0.285 4.11472e-14 	0 	0 	
0.295 6.46599e-14 	0 	0 	
0.305 7.05381e-14 	0 	0 	
0.315 7.64163e-14 	0 	0 	
0.325 6.17208e-14 	0 	0 	
0.335 1.76345e-14 	0 	0 	
0.345 -2.93909e-14 	0 	0 	
0.355 -7.05381e-14 	0 	0 	
0.365 -9.69897e-14 	0 	0 	
0.375 -9.99287e-14 	0 	0 	
0.385 -9.40506e-14 	0 	0 	
0.395 0.337777 	0 	0 	
0.405 4.31793 	0 	0 	
0.415 16.5569 	0 	0 	
0.425 36.4168 	0 	0 	
0.435 59.695 	0 	0 	
0.445 83.1758 	0 	0 	
0.455 104.082 	0 	0 	
0.465 118.89 	0 	0 	
0.475 126.385 	0 	0 	
0.485 129.514 	0 	0 	
0.495 130.694 	0 	0 	
0.505 130.756 	0 	0 	
0.515 130.416 	0 	0 	
0.525 129.87 	0 	0 	
0.535 129.299 	0 	0 	
0.545 129.098 	0 	0 	
0.555 129.568 	0 	0 	
0.565 130.333 	0 	0 	
0.575 130.328 	-2.36451e-30 	0 	
0.585 126.877 	-1.18704e-30 	0 	
0.595 110.177 	0 	0 	
0.605 71.2796 	0 	0 	
0.615 27.2798 	0 	0 	
0.625 4.28988 	0 	0 	
0.635 -1.16828e-13 	0 	0 	
0.645 -7.0538e-14 	0 	0 	
0.655 -1.98388e-14 	0 	0 	
0.665 -1.10216e-14 	0 	0 	
0.675 -2.20431e-14 	0 	0 	
0.685 -2.2043e-15 	0 	0 	
0.695 3.74733e-14 	0 	0 	
0.705 4.1882e-14 	0 	0 	
0.715 3.96776e-14 	0 	0 	
0.725 8.59683e-14 	0 	0 	
0.735 1.23442e-13 	0 	0 	
0.745 8.81726e-14 	0 	0 	
0.755 3.96777e-14 	0 	0 	
0.765 3.30647e-14 	0 	0 	
0.775 2.86561e-14 	0 	0 	
0.785 -8.81725e-15 	0 	0 	
0.795 -2.64518e-14 	0 	0 	
0.805 2.2043e-15 	0 	0 	
0.815 2.42475e-14 	-6.11819e-30 	0 	
0.825 1.98389e-14 	0 	0 	
0.835 6.61295e-15 	0 	0 	
0.845 0 	0 	0 	
0.855 -8.81725e-15 	0 	0 	
0.865 -4.18819e-14 	0 	0 	
0.875 -7.0538e-14 	0 	0 	
0.885 -5.95165e-14 	0 	0 	
0.895 -5.06992e-14 	0 	0 	
0.905 -5.29035e-14 	0 	0 	
0.915 -3.5269e-14 	0 	0 	
0.925 -2.20432e-14 	0 	0 	
0.935 -2.20432e-14 	0 	0 	
0.945 -1.32259e-14 	0 	0 	
0.955 1.76345e-14 	0 	0 	
0.965 7.27423e-14 	0 	0 	
0.975 1.10216e-13 	0 	0 	
0.985 9.69897e-14 	0 	0 	
0.995 6.28724e-14 	0 	0 	
