0.005 4.64743e-14 	0 	0 	
0.015 2.11247e-14 	0 	0 	
0.025 5.49242e-14 	0 	0 	
0.035 3.37995e-14 	0 	0 	
0.045 1.43648e-13 	0 	0 	
0.055 -4.22494e-15 	0 	0 	
0.065 -2.95746e-14 	-4.22156e-30 	0 	
0.075 -7.18239e-14 	0 	0 	
0.085 -7.18239e-14 	0 	0 	
0.095 2.95746e-14 	0 	0 	
0.105 -1.26748e-14 	0 	0 	
0.115 1.30973e-13 	0 	0 	
0.125 8.44988e-15 	0 	0 	
0.135 -2.95746e-14 	0 	0 	
0.145 1.26748e-14 	0 	0 	
0.155 -5.91491e-14 	0 	0 	
0.165 5.06993e-14 	0 	0 	
0.175 -1.52098e-13 	0 	0 	
0.185 4.22494e-15 	0 	0 	
0.195 1.22523e-13 	0 	0 	
0.205 8.44988e-14 	0 	0 	
0.215 -4.22494e-14 	0 	0 	
0.225 -5.91491e-14 	0 	0 	
0.235 -7.60489e-14 	0 	0 	
0.245 -4.64743e-14 	0 	0 	
0.255 -1.90122e-13 	0 	0 	
0.265 -3.37995e-14 	0 	0 	
0.275 2.95746e-14 	0 	0 	
0.285 -8.44987e-14 	0 	0 	
0.295 2.11247e-14 	0 	0 	
0.305 9.29486e-14 	0 	0 	
0.315 8.44988e-14 	0 	0 	
0.325 1.90122e-13 	0 	0 	
0.335 1.26748e-14 	0 	0 	
0.345 5.06993e-14 	0 	0 	
0.355 -5.91491e-14 	0 	0 	
0.365 2.07022e-13 	0 	0 	
0.375 6.5571e-12 	0 	0 	
0.385 3.2617e-07 	0 	0 	
0.395 0.000146865 	0 	0 	
0.405 0.0118355 	0 	0 	
0.415 0.287149 	0 	0 	
0.425 2.61965 	0 	0 	
0.435 11.4134 	0 	0 	
0.445 29.9836 	1.02317e-30 	0 	
0.455 57.1426 	0 	0 	
0.465 88.6512 	0 	0 	
0.475 116.741 	0 	0 	
0.485 129.224 	8.81553e-31 	0 	
0.495 130.208 	0 	0 	
0.505 130.172 	0 	0 	
0.515 130.141 	1.82006e-31 	0 	
0.525 130.115 	0 	0 	
0.535 130.09 	0 	0 	
0.545 130.042 	0 	0 	
0.555 129.383 	-3.4104e-30 	0 	
0.565 123.043 	0 	0 	
0.575 88.0717 	0 	0 	
0.585 15.9101 	0 	0 	
0.595 0.424681 	0 	0 	
0.605 0.00394376 	0 	0 	
0.615 8.74456e-06 	0 	0 	
0.625 5.55661e-10 	0 	0 	
0.635 3.16872e-14 	0 	0 	
0.645 -1.20411e-13 	0 	0 	
0.655 -6.33756e-15 	0 	0 	
0.665 9.18926e-14 	0 	0 	
0.675 -9.18925e-14 	0 	0 	
0.685 1.55266e-13 	0 	0 	
0.695 5.06991e-14 	0 	0 	
0.705 9.50619e-15 	0 	0 	
0.715 9.50612e-15 	0 	0 	
0.725 -2.85181e-14 	3.51796e-30 	0 	
0.735 1.90121e-14 	0 	0 	
0.745 -6.65426e-14 	0 	0 	
0.755 3.80243e-14 	0 	0 	
0.765 -6.3374e-14 	-1.05539e-29 	0 	
0.775 -9.18925e-14 	0 	0 	
0.785 3.16872e-14 	0 	0 	
0.795 -4.43618e-14 	0 	0 	
0.805 -6.02051e-14 	0 	0 	
0.815 -2.53495e-14 	4.92515e-30 	0 	
0.825 -7.6049e-14 	2.63848e-30 	0 	
0.835 3.48555e-14 	0 	0 	
0.845 -1.90122e-14 	0 	0 	
0.855 -3.16883e-15 	0 	0 	
0.865 -3.80244e-14 	0 	0 	
0.875 6.33776e-15 	0 	0 	
0.885 -5.06989e-14 	0 	0 	
0.895 -6.33756e-15 	0 	0 	
0.905 1.42591e-13 	0 	0 	
0.915 -1.36254e-13 	0 	0 	
0.925 6.65425e-14 	0 	0 	
0.935 8.23864e-14 	0 	0 	
0.945 9.82298e-14 	0 	0 	
0.955 -8.87233e-14 	0 	0 	
0.965 -5.38681e-14 	0 	0 	
0.975 -2.21811e-14 	0 	0 	
0.985 6.97111e-14 	0 	0 	
0.995 1.26752e-14 	0 	0 	
