0.005 0 	0 	0 	
0.015 0 	0 	0 	
0.025 1.17563e-14 	0 	0 	
0.035 4.40863e-14 	0 	0 	
0.045 5.87817e-14 	0 	0 	
0.055 2.35127e-14 	0 	0 	
0.065 -2.05736e-14 	0 	0 	
0.075 -4.11472e-14 	0 	0 	
0.085 -3.82081e-14 	0 	0 	
0.095 5.87817e-15 	0 	0 	
0.105 4.70254e-14 	0 	0 	
0.115 4.11472e-14 	0 	0 	
0.125 2.35127e-14 	0 	0 	
0.135 -2.64517e-14 	0 	0 	
0.145 -8.81725e-14 	-3.26305e-31 	0 	
0.155 -8.22944e-14 	0 	0 	
0.165 -5.87818e-14 	0 	0 	
0.175 -5.58427e-14 	0 	0 	
0.185 -2.64518e-14 	0 	0 	
0.195 2.64518e-14 	0 	0 	
0.205 5.29035e-14 	0 	0 	
0.215 3.5269e-14 	0 	0 	
0.225 2.05736e-14 	0 	0 	
0.235 2.35127e-14 	6.52609e-31 	0 	
0.245 8.81728e-15 	0 	0 	
0.255 2.49999e-20 	0 	0 	
0.265 2.05736e-14 	0 	0 	
0.275 1.76345e-13 	0 	0 	
0.285 2.38066e-12 	0 	0 	
0.295 2.97464e-11 	0 	0 	
0.305 3.33641e-10 	0 	0 	
0.315 3.37943e-09 	0 	0 	
0.325 3.1011e-08 	0 	0 	
0.335 2.58368e-07 	0 	0 	
0.345 1.95704e-06 	0 	0 	
0.355 1.3485e-05 	0 	0 	
0.365 8.45117e-05 	0 	0 	
0.375 0.000481265 	0 	0 	
0.385 0.00248595 	0 	0 	
0.395 0.0116174 	0 	0 	
0.405 0.048945 	0 	0 	
0.415 0.185086 	0 	0 	
0.425 0.625021 	0 	0 	
0.435 1.8749 	0 	0 	
0.445 4.97279 	0 	0 	
0.455 11.6222 	0 	0 	
0.465 23.8819 	0 	0 	
0.475 43.0404 	0 	0 	
0.485 67.8413 	0 	0 	
0.495 92.77 	0 	0 	
0.505 109.022 	0 	0 	
0.515 109.709 	0 	0 	
0.525 94.1324 	0 	0 	
0.535 67.8001 	0 	0 	
0.545 40.09 	0 	0 	
0.555 19.2173 	0 	0 	
0.565 7.53835 	0 	0 	
0.575 2.49256 	-4.86828e-31 	0 	
0.585 0.717697 	0 	0 	
0.595 0.183929 	0 	0 	
0.605 0.042433 	0 	0 	
0.615 0.00886262 	0 	0 	
0.625 0.00168107 	0 	0 	
0.635 0.000290142 	0 	0 	
0.645 4.56165e-05 	0 	0 	
0.655 6.53615e-06 	0 	0 	
0.665 8.53332e-07 	0 	0 	
0.675 1.01422e-07 	0 	0 	
0.685 1.09566e-08 	0 	0 	
0.695 1.07331e-09 	0 	0 	
0.705 9.50766e-11 	0 	0 	
0.715 7.61149e-12 	0 	0 	
0.725 5.55488e-13 	0 	0 	
0.735 3.5269e-14 	0 	0 	
0.745 0 	0 	0 	
0.755 0 	0 	0 	
0.765 0 	0 	0 	
0.775 -2.20431e-15 	0 	0 	
0.785 -1.98388e-14 	0 	0 	
0.795 -3.30647e-14 	0 	0 	
0.805 -6.61295e-15 	0 	0 	
0.815 2.64517e-14 	-4.89455e-31 	0 	
0.825 2.64518e-14 	0 	0 	
0.835 8.81725e-15 	0 	0 	
0.845 0 	0 	0 	
0.855 -1.10216e-14 	0 	0 	
0.865 -2.64518e-14 	0 	0 	
0.875 -1.10216e-14 	0 	0 	
0.885 1.98388e-14 	0 	0 	
0.895 2.20432e-14 	0 	0 	
0.905 2.20433e-15 	0 	0 	
0.915 -1.54302e-14 	0 	0 	
0.925 -2.20432e-14 	0 	0 	
0.935 -1.10216e-14 	0 	0 	
0.945 1.54302e-14 	0 	0 	
0.955 2.64518e-14 	0 	0 	
0.965 1.10216e-14 	0 	0 	
0.975 0 	0 	0 	
0.985 0 	0 	0 	
0.995 0 	0 	0 	
